1.180077137884774918e-01
1.644841697492526178e-01
9.906142378218688038e-02
1.113307491700527563e-01
1.069674816388817701e-01
3.556154056550522857e-02
9.620232037566864292e-02
1.024893700034263666e-01
7.092540649143087850e-02
1.227007961498638861e-01
4.458109042901725605e-02
1.414098229322701405e-01
7.448881062876910875e-02
1.029416572540257924e-01
1.354994720529828778e-01
1.010555639385074395e-01
8.989653810916375942e-02
9.158902501897214776e-03
6.156490386845311913e-02
1.112635028684719196e-02
3.455295998789672390e-02
3.558321784169877350e-02
8.163280765932871830e-02
1.071562693464367388e-01
1.271699756413664784e-01
7.009956345785774146e-02
1.010890673943017071e-01
7.926638633340873930e-02
8.935387431717181639e-02
9.422936594492062334e-02
5.343825453852975998e-02
8.916086262353198344e-02
7.637166391806014809e-02
4.527743887401690370e-02
3.325252176691686351e-02
1.398122104421459233e-04
-3.500337821042023845e-02
5.390743671011513638e-02
-8.911328283610568668e-03
-2.264740599139485749e-02
-5.843104923779762760e-04
-7.134396175209674340e-03
-1.563888827562336103e-02
-9.140094746067484177e-02
-3.729257864079932316e-02
-6.004979874875090995e-02
-4.713495292806136466e-02
-3.698103985583026110e-02
-3.141782502386560733e-02
3.670873152264680916e-02
-1.874212334546606490e-02
5.201357222662748858e-02
4.124625606228587288e-02
3.987381157019267292e-02
4.150508343731798555e-02
1.429799256038433164e-02
-6.175146678897870667e-02
-1.230497758108159423e-02
1.272429481689230091e-02
4.588296101140580674e-02
7.643092602196975560e-02
4.365946478316493767e-02
-4.231307870715433905e-02
9.798554362824486719e-03
-2.511679984645690672e-02
-1.072143116470524599e-02
-3.614965640606172814e-02
-1.255707043383299804e-01
-1.023326726335819087e-01
-9.066049120358318780e-02
-2.768402129827664260e-02
9.961298880366456499e-02
1.719693554351663101e-01
3.390326157349233260e-01
4.826567762859472754e-01
5.005333438602341811e-01
5.965154269168791989e-01
4.890360707104043914e-01
3.677316991026876036e-01
1.867044197065228783e-01
1.197581546547078490e-01
7.824238428779511922e-02
4.748041918314831189e-02
5.516722752700389115e-02
5.868851705326175866e-02
-2.067716396332341250e-02
6.287198792187559393e-03
1.531818391331670609e-02
8.203936550125057181e-02
1.948620655327235052e-03
7.128810113371145118e-02
8.692471627855405392e-02
1.119805455986256915e-01
1.457289350079204460e-01
9.135479517519928816e-02
1.133849499260683180e-01
1.407645956070469051e-01
1.780433886286440504e-01
1.606390310176048775e-01
1.344397358346460514e-01
1.352061277884087365e-01
1.810541105864454103e-01
2.388821493173532984e-01
2.235099194571885661e-01
2.292908027247677061e-01
2.630271653629293049e-01
2.276792356613572821e-01
2.643512900589974901e-01
2.304980316878423863e-01
2.347676278679210471e-01
2.388607436064769385e-01
2.626636662073684181e-01
2.438393962234122192e-01
2.577754013581232129e-01
2.799841869404198769e-01
2.411155930642640000e-01
2.118645625697768708e-01
2.457799555337212283e-01
1.872518844294962792e-01
1.564800509214373803e-01
1.718783411761373725e-01
9.406976371941705439e-02
7.877521588209387970e-02
5.741181315683515501e-02
6.462348171892987048e-02
5.713268577405356680e-02
7.311480696128815071e-02
8.078012757658901977e-02
9.652939800025993333e-02
1.280502936385927992e-01
1.086377639568484321e-01
7.547909741745109646e-02
1.689983666617865532e-02
5.017208176876003511e-02
2.048610200094001105e-02
4.069974962417333142e-02
5.070961353427030915e-02
6.913338442748248602e-02
9.735940610475642132e-02
9.467083512926643962e-02
1.950418510330634639e-02
1.745168696415921872e-02
3.397428953734012158e-02
-4.767012996033562905e-02
5.997784992561157325e-03
6.904224994985747044e-02
1.048119380072581597e-01
7.616552318637034857e-02
2.723531253182144563e-02
-1.011039715987222670e-02
-1.608849139195348693e-02
-8.719963391158741528e-04
-1.909532851007146592e-02
3.561986767258444597e-02
4.348128095183838998e-02
8.263981249648943983e-02
5.509144323020361000e-02
8.032260404611679672e-02
1.028693365356590089e-01
8.148655853724776077e-02
6.458853437721745472e-02
9.355280993102579878e-02
1.206813019811075749e-01
1.054566300826262071e-01
3.494082677690601990e-02
-1.097549897023968046e-02
2.180486696324450760e-02
4.345737135700272757e-02
3.237287713220976526e-02
5.092809251756889172e-02
-1.662903157808586635e-02
-2.660754856138101976e-02
-2.401359735157206771e-02
-7.215217628981225595e-02
1.641827943049091812e-02
-3.435562580957574053e-02
7.609833292168728669e-02
2.644232975670842214e-02
6.348293199008497867e-02
5.919443673679625206e-02
8.417254874646905305e-02
2.131390687421472543e-02
-3.727534736588337255e-02
2.820272987952928551e-02
2.675660693157701220e-02
3.323179703547578939e-02
9.330015377578895763e-03
4.756371736497352204e-02
4.952684075600898711e-02
-4.347861325705617425e-02
4.945431062968329294e-02
1.146232729147001889e-01
7.916553288266978128e-02
1.073222292778387710e-02
6.970269892493910491e-02
4.642595868897192446e-02
1.362726501903902820e-01
8.343977771952564015e-02
9.283821897476904339e-02
3.130714248291380924e-02
7.010175346163188825e-02
1.115010820732130759e-01
3.684528094501805795e-02
9.107885929705239469e-02
9.253465288364262631e-02
5.747124555069726276e-02
8.348919524557846250e-02
2.685421689368448772e-02
5.541391005594119290e-02
6.446241404657598872e-02
-5.500667336168510446e-03
6.183003901480549347e-03
5.834330590945609185e-02
3.741298404735360350e-02
1.479720879384155419e-02
5.215760178358926774e-02
1.202061922336928323e-01
4.439367615092955355e-02
9.156471070405566848e-02
6.216263926568517395e-02
5.851909732700751043e-02
9.085633005375996774e-02
7.970174690719034061e-02
4.398953577670187964e-02
1.026927218582021628e-01
1.206113836601080264e-01
1.401756918701874410e-01
1.972765916624788507e-01
4.174404657444894529e-01
5.781575560472457243e-01
7.263713551947710290e-01
7.230583789921488647e-01
6.499127024206328151e-01
5.742588781188384672e-01
3.803200387802558868e-01
2.343989506254431643e-01
1.448616895104666291e-01
1.385251864589596982e-01
1.398986154302981622e-01
8.031684640046160562e-02
1.221028565105179431e-01
8.951455713530390157e-02
6.485194848864490880e-02
8.325080955047173270e-02
1.379174261704189108e-01
5.737458912845841419e-02
7.510135131348658066e-02
1.395905261801226871e-01
1.026875896177137093e-01
1.169501461814295151e-01
1.498566294913412089e-01
1.501847509877095588e-01
1.893496923367413154e-01
1.462943561367567313e-01
1.488870699517048368e-01
1.141376045407826723e-01
1.486598058109334375e-01
1.802500072705278955e-01
1.194157423119021622e-01
1.980466322316342953e-01
2.037886201517094542e-01
1.794538405458149244e-01
1.922348433576705484e-01
1.891845195825461734e-01
1.479960968521271958e-01
1.508630549716096780e-01
1.701728906038526279e-01
2.101674752042867467e-01
2.252037674663579792e-01
2.414121044797257198e-01
1.917622512460725459e-01
2.091146747224838232e-01
2.112876074352692535e-01
1.434472499082747876e-01
1.414430533119709066e-01
1.472286529209079209e-01
1.056333850966710008e-01
1.183428828052901782e-01
1.652585162967135923e-01
7.976075189624651229e-02
1.057905175170294615e-01
1.123487936693038092e-01
8.047253638185666857e-02
4.717791313395779812e-02
-1.012553717730554914e-03
5.740515629676869180e-02
3.847178552872705659e-03
3.114702297896119326e-02
-3.281765702224549025e-02
-4.943876142802711149e-02
3.746590993549250848e-03
-6.701680219844952102e-02
3.507566588832834731e-02
1.387681814802482205e-01
3.747932820118736463e-02
-3.532707215948701490e-02
4.506665803320492047e-02
3.081089956175319527e-02
1.785719049105329026e-03
-6.226668518920735335e-02
1.408356060879620633e-02
-1.588276513827129033e-02
2.529134321912532291e-02
5.645173735563398243e-02
4.875112771547882029e-02
3.979855310663930890e-02
-9.449048100562476571e-04
-4.358501685834304668e-02
-2.530052912783515434e-02
-4.571819765087262871e-02
-4.284665253492284803e-02
-1.686146759056871003e-02
-3.621618817480770636e-02
4.825212765038743024e-03
2.841635136562370434e-02
-1.129388133325991833e-02
-3.603546323126031320e-02
-9.274524154720729940e-02
-4.394794846901320384e-02
-5.316148516041618866e-04
2.136490297864192950e-02
-2.810043615409876794e-02
8.936698405112138144e-03
1.978260401793580092e-03
8.658759637830526490e-03
1.270405314841956818e-02
-5.997814592394193345e-03
5.111651333723361140e-02
-2.860416635880756037e-02
-1.178065802092102127e-02
1.563099080686082207e-02
-5.414281946384565808e-02
1.454600654178946073e-02
5.413696542089080355e-02
7.718485112340633947e-02
-7.680197262426483040e-03
1.196198843845724946e-02
3.948279893100976184e-02
3.285898230098951989e-02
3.462085038983965524e-02
8.442197607054993669e-02
1.199269578668592240e-01
1.075728081473908138e-01
8.422429683946512646e-02
3.313739967935458441e-02
2.703059040127355275e-02
2.115550889884929009e-02
-4.171107674202194360e-03
-8.694658207569973263e-02
-4.517353620822769228e-02
6.753262161473629066e-03
-2.535113926865183165e-02
-7.132796671735851246e-02
-6.956389873853274786e-02
-2.526775257100941086e-02
-1.939425025809347891e-02
-1.642638288692919307e-02
4.970918802360566741e-02
-4.104253140241063275e-02
-4.278357835900475220e-02
1.165550647852085092e-02
-1.793238369482307720e-02
-5.882527778335085167e-02
-1.840821953495117014e-02
2.470097042325748726e-02
-4.484786332326651248e-02
-4.526425827976125749e-03
-2.888430766541966177e-02
-4.864558871942438467e-02
1.373982877021850957e-02
6.015372509930737299e-02
4.722550458902549653e-02
5.893017106975872305e-02
3.309207895646490427e-02
1.335463750799487093e-02
3.803574619428942705e-03
-1.767233964906346488e-02
-7.986407643164161740e-03
-1.233780511556999138e-02
-3.889431930940955712e-02
4.865014093472144752e-02
3.157054629122919148e-02
3.030101015330645756e-02
1.951678310928953858e-02
-5.237232160048033505e-03
3.167557310378452118e-02
7.642723582027485807e-02
1.430842330628397663e-01
2.726303325320221793e-01
3.191244546911388147e-01
5.534684977747836854e-01
5.577646220011127642e-01
6.722939630785214060e-01
5.590715248269630955e-01
3.781254990839212904e-01
2.020039469198526838e-01
1.082241275074396908e-01
2.018162236053222536e-02
4.571951254285507027e-03
-2.939190335298200174e-03
6.041253234417235524e-02
9.158781057484281785e-02
2.647834156340886716e-02
2.309737062593652385e-02
4.188314283051180337e-02
4.120662145373371610e-02
7.904892571857213834e-02
1.085697099675516641e-01
1.027447381467029019e-01
7.094147895536476178e-02
9.336747796281173739e-02
1.165372661993281517e-01
1.392926963476406876e-01
2.104587052285611937e-01
2.253573722272009805e-01
1.602641216070116448e-01
1.834037184959385336e-01
1.784396976097457899e-01
1.750853736707201902e-01
2.282465150399506371e-01
1.651460228831009847e-01
1.776714362046021844e-01
1.878184523278663975e-01
2.128000977941374716e-01
1.835406096477017190e-01
1.398465991618476068e-01
1.716737160103452009e-01
1.733090674173328183e-01
1.898625386180371466e-01
2.139128378156616439e-01
2.781989263748129160e-01
2.573532541807463381e-01
1.941466460479019662e-01
1.950275047748307178e-01
1.654532743877801526e-01
1.870127496492821895e-01
1.972249090857787768e-01
1.645878278617072532e-01
1.296326774135609372e-01
1.192643545061808363e-01
1.444770959431078416e-01
1.121839811441057710e-01
9.822988859351215740e-02
1.309244589650217228e-01
7.468249725014941554e-02
4.181619141537919193e-02
1.406269730040460297e-02
8.125929032666041885e-02
6.538960976692832772e-02
-2.317498770110449496e-02
1.318731865679829973e-02
2.791211881155846591e-02
6.459778199591391379e-03
5.900523487213898965e-03
1.044833911049279640e-03
-2.783385615448379091e-03
4.888010446755408633e-03
3.395598066336135562e-02
1.857811207293178293e-02
9.089519855155953065e-02
8.131466863138150925e-02
7.946889519944108637e-02
6.052806598166816932e-02
3.262612719562356378e-02
1.379691556893909710e-01
3.105928168080687723e-02
2.518739043903761229e-02
-4.078255878517225014e-02
5.289574034843488870e-02
3.330964868117596012e-02
2.709963001806655822e-02
3.571199829108875901e-04
-6.870731072188621114e-03
1.606610370019894915e-02
3.334227667452586280e-02
1.273517869224816829e-02
6.413417164022110206e-02
3.058122825556824909e-02
6.775006038440969935e-02
8.632084402395165390e-02
1.682671135835118667e-02
-3.104478648412772879e-02
-8.493590564203547244e-03
-7.176055295709202198e-02
-7.623573965037867828e-02
-5.600144542213971594e-02
6.576740243825887622e-03
5.504845361318171093e-02
1.650504826170369824e-02
3.367001534395631934e-02
2.884798165733441083e-02
1.461559734046740527e-02
-1.108590119160986209e-02
5.649300578683444374e-03
5.121815548051376898e-03
-1.863460042232527314e-02
2.373689699179954218e-02
3.493157276212335849e-02
3.558750871471880878e-02
3.988504496494935797e-02
2.570294418074984752e-02
2.399529696598701189e-02
2.527507075836342432e-02
-5.791543637679465867e-02
-4.190313297995463399e-02
-2.288669567722437931e-02
1.410407267672257603e-02
4.718200752761951555e-02
2.544414264926293107e-02
-6.265819302614501762e-03
-6.119843852639000881e-02
-9.278840853195000071e-02
-4.281363737119589508e-02
-4.535416875445085622e-02
-6.418934819470728526e-03
-6.499792980017467248e-03
8.238056871835555683e-03
6.093380303616051374e-02
7.281413497207411822e-02
1.005906691776013995e-01
4.553516702275445943e-02
1.003658187781667765e-01
9.106160059707210652e-02
3.836472934850986699e-02
4.503161749690029469e-02
1.158991311419629161e-02
-1.493742764311215693e-02
3.185908314760499405e-02
1.788000008066897850e-02
5.822690438117111844e-02
6.213148641959641283e-02
3.661101380333707522e-02
4.781079996063086757e-03
5.180929640653960527e-02
1.042349761676390762e-01
6.712348945917510912e-02
8.024419115108882838e-02
2.520031282984538240e-02
5.236985139193843508e-03
3.786797037906670244e-02
4.807074976451548853e-02
2.284775900891106853e-02
3.353785901875214193e-02
2.626184876763820557e-03
-1.860752640056168722e-02
5.668574607294426387e-02
1.383919289109616368e-01
2.874205388709852871e-01
4.029695221504204783e-01
5.539086982762353450e-01
6.265321474642241428e-01
6.396138381185725308e-01
5.508576898793862142e-01
3.782739919013428653e-01
1.678243945645563617e-01
1.043013000119611400e-01
2.428707804244534252e-02
1.425922127694212449e-03
2.261174989791378542e-02
-2.482999635875924455e-02
-2.381421055454194247e-02
1.484209828218688298e-02
3.398429222683544554e-02
-1.268609521397549150e-02
-1.481342036151357677e-02
3.376277381389680698e-03
2.968445217862229757e-02
-2.487298249776789816e-02
-7.805438267187575496e-03
8.219035045043121546e-04
3.324748726505886987e-02
-7.979358548004522600e-03
3.992520347187106244e-02
1.606695930033393005e-02
5.941578686925109987e-02
3.549332857557319088e-02
1.354214466470019529e-01
1.531246713504521850e-01
1.507126189162041607e-01
1.116903100844714447e-01
1.212035086546616458e-01
9.908627705460525126e-02
1.209197370448757830e-01
1.487793650106256915e-01
1.451582771939353700e-01
1.842041561540369021e-01
2.524199800815268291e-01
2.554319969548443647e-01
2.463504750723298775e-01
2.264894219163551825e-01
2.243151885524571065e-01
1.816411173525572520e-01
1.156749259205159669e-01
1.337593918770612622e-01
1.448419411605205154e-01
1.006626869006957831e-01
6.789727291208695614e-02
7.523499909082270731e-02
3.865296952066930858e-02
3.526320978471617074e-02
7.825218735959044158e-02
6.254580985032326401e-02
3.073926574815732254e-02
1.160369184812300863e-02
2.810740713595318713e-02
5.407589458232243962e-02
2.192595589055730543e-02
1.521461587180227698e-02
3.661700235966012379e-02
8.524819016477427902e-02
3.429151925535239842e-02
5.181667442662019757e-02
3.642027132446928883e-02
1.959945905247943015e-02
9.016620943489189743e-02
8.179842544161275431e-02
4.662929445425215147e-02
2.502138841614871129e-02
7.957961776623104222e-02
6.586645774587719659e-02
4.891434704089344526e-02
3.234905224480284780e-02
4.478597676178183717e-03
5.954273162741798020e-02
1.050839731204421534e-01
1.080688295108383212e-01
1.440859858919047443e-01
1.644772873187827500e-01
1.691591907733592803e-01
1.527872725831044554e-01
1.245407445726294249e-01
9.608701662829294277e-02
2.889913994983728945e-02
5.799279934066688125e-02
8.796470831357393327e-02
4.374515067393627832e-02
7.869267649386174623e-02
6.675276302491395253e-02
5.869404681499374582e-02
7.204369411618005703e-02
2.048871519868988508e-02
1.857390738783846335e-02
-1.589263547921629383e-02
-5.873771083522648373e-02
2.062030155868629575e-02
6.194897278338974689e-03
5.720323742652943383e-02
1.227439378439868778e-01
1.295193550554851192e-01
4.040553583346880029e-02
6.937142767194129367e-02
6.998410275551093795e-02
8.586372120039464928e-02
1.372370343416087421e-02
-2.718474857461267158e-03
5.872956820040600018e-02
3.296896030993304305e-02
3.969619926746392746e-02
-3.799141131658012593e-02
-1.011226538969193373e-02
7.041737787831639506e-03
-1.793772451739297780e-03
6.598737002782580074e-02
2.351342434985158325e-03
-1.359527760117282963e-02
-9.078131407410643117e-03
-4.344145491953528559e-02
3.214343910076469801e-02
1.191328659165953943e-02
8.960357705118091043e-02
1.190106074191779328e-01
1.212940795864282384e-01
1.243755209917150328e-01
8.740250077621060376e-02
6.156965075702818674e-02
4.213389621016429970e-02
6.765942118313733600e-02
5.481711050847121180e-02
9.381257409903623334e-02
5.070714456293077405e-02
3.437994230354659425e-02
7.567242941597725203e-02
1.209068381345029530e-01
1.381081717648436069e-01
1.569113254086441089e-01
1.918069058232272639e-01
1.322387187648075280e-01
5.992408792752557806e-02
8.051458252749356392e-02
5.646835603694153050e-02
8.565616225240774151e-02
8.539007933947483087e-02
1.062645833437820819e-01
9.203833211304741913e-02
1.012073571101827357e-01
1.394890703274714594e-01
9.823934401466555277e-02
3.674185992936748052e-02
1.297560739835663945e-01
2.370292925012724983e-01
3.519288276343810473e-01
5.657609827282125137e-01
5.935520629803575643e-01
5.441101810566939534e-01
4.703683267906700882e-01
3.570583052729918716e-01
1.316842204139599959e-01
9.453061673414900334e-02
1.690608394747245002e-03
6.215768302972834308e-02
1.124681115299086265e-01
1.129819960019951830e-01
3.089623596610604345e-02
4.563195171741685208e-02
5.848845873913122162e-02
5.406630121829632263e-02
6.154594059689902363e-02
6.206014385653471632e-02
9.000342419549259287e-02
9.867557340110068298e-02
1.336567061584179039e-01
9.624902100245294467e-02
7.462678960539492756e-02
1.124047912368115743e-01
1.061918364944757082e-01
1.015468586110862687e-01
1.535126191255792583e-01
2.005764367828145878e-01
2.290245720667711260e-01
1.791921162195403427e-01
1.947484150112570589e-01
2.234673147631979773e-01
2.098046181337098470e-01
1.667564997529154269e-01
1.784891510965799788e-01
2.364011889600666771e-01
2.409284594154823822e-01
2.471051574038927168e-01
2.531569525067716708e-01
1.898932796247445320e-01
1.556009968329646886e-01
1.256160644109670377e-01
1.996199964991611786e-01
1.917242621149394532e-01
1.706264861318627091e-01
1.481106273638649329e-01
1.801673566885410582e-01
1.126178142702023988e-01
1.490201150894940318e-01
8.929148726782339118e-02
1.337172066886159472e-01
1.043554984848348577e-01
9.353171326812104169e-02
9.417095095820442185e-02
1.015355409748515680e-01
2.244576387130967771e-02
8.995569346842294256e-02
4.834996115094681440e-02
2.060156509751743387e-02
6.996254053005736273e-02
5.638928917898265725e-02
1.516162392752153920e-01
1.656415208224517044e-01
1.744957033144643455e-01
8.832950360789992850e-02
6.146780670861873991e-02
1.018764460583544418e-01
6.425886497503952022e-02
7.536302644098601122e-02
7.780077009147481903e-02
6.224226087647385941e-02
3.236929266261838467e-02
6.471763949482592371e-02
4.611736996152873691e-03
4.571170585846472123e-02
7.766450910638653116e-02
1.040803985345513522e-01
5.543472418950085023e-02
6.253709455490158442e-02
8.118685878775644404e-02
3.417682880618917729e-02
1.044581109266229102e-01
3.630828672926312423e-02
1.613407619893402617e-02
2.405612181702435765e-02
2.029030142137424123e-02
1.765937436868297503e-02
1.840871137894137255e-02
-5.311557929443544435e-04
-2.373231117403705459e-02
7.736466023631313749e-02
4.644691622692524724e-02
8.233698049472761016e-02
7.936359157474165427e-02
6.601292069885700275e-02
2.482714827076114641e-02
-2.427235478532455137e-02
-2.235087163002275057e-03
-1.131017806530053987e-02
4.393449564009783981e-03
4.407593468836303041e-02
2.056589703246194945e-02
-1.198003446444956266e-02
-4.887989019078525788e-02
-6.190204936527204244e-02
-5.721379324029517849e-02
3.300384309052788179e-02
-5.061501770069698480e-03
-4.048310041767409773e-02
-3.204156354310622179e-02
-9.727804959573418953e-02
-5.847953007886595028e-02
-3.093514945581909287e-02
-6.073122968431018953e-02
-8.155322970404818572e-02
-6.370523985438131254e-02
-2.340087232744322149e-02
-1.005467062446925575e-03
-2.907313005088542346e-02
-4.377062900602114726e-03
3.970001905649039875e-02
-3.020231635142071880e-02
-3.348446668697223350e-02
-6.139292394948385467e-02
-4.165763395377323347e-02
-2.564032329768240609e-02
-1.472201800750090606e-02
-5.869823316323632273e-02
9.801660527226849218e-03
-1.272940348032890190e-02
-1.199230616268458227e-02
-4.306118797053713754e-02
1.400785019443613610e-02
5.549880103568531620e-02
2.071019447471583730e-02
5.249234080602124819e-02
1.890643005295973567e-02
4.362657922748882505e-02
4.544657565841370150e-02
-7.686139630883645490e-03
-3.943403498487524361e-02
-1.662000425894825939e-02
-3.870633450681162241e-02
1.389801128411238124e-02
-2.147319073791182850e-02
-1.037918529428407816e-01
-5.242290568872273737e-02
-1.696371223349653345e-02
1.295793185282336779e-01
2.438452956721541276e-01
4.315530957831358316e-01
5.262382754712588984e-01
5.603598421444438982e-01
5.433031541535997544e-01
4.227865363633004359e-01
2.475287627104689192e-01
1.349064994402387196e-01
4.409244383004222445e-02
2.387200226820549581e-02
-2.014769146116925785e-02
4.284508942039091245e-02
-2.020889739356267895e-02
-2.683208818041909333e-02
9.975746645407915225e-03
-4.630565426197001677e-02
-2.181308736915110735e-02
-1.506064701843509712e-02
-6.801821031840557530e-03
-1.047622863271704952e-02
-2.316807874199323936e-02
2.062852245792723416e-02
-7.774093729526157515e-03
6.751660749465568379e-02
7.521894482514579483e-02
1.310583672901266539e-01
1.439160682568184912e-01
1.399448843545608168e-01
1.023991138392471995e-01
1.508855991453636469e-01
1.816294391452686063e-01
1.704684322987541356e-01
1.954885970085438740e-01
1.284072239931181025e-01
1.997881132799249893e-01
1.672944982830814886e-01
1.584286223657730697e-01
1.640658459382539902e-01
1.160651188788851124e-01
1.777828396321198268e-01
1.874783563625552762e-01
1.309384556982955417e-01
1.642815715056794856e-01
1.024678461977214655e-01
1.352545932611568247e-01
1.500736656778295652e-01
1.086401740811438199e-01
7.156382219063651962e-02
1.089495056892895997e-02
2.611437813870745583e-02
2.332770974609529868e-02
4.939975791065576161e-02
3.050412521752476902e-02
1.221260421097018073e-02
-5.022144316490229077e-04
1.338714066606336295e-02
-2.947284123450411020e-04
-6.244029736123098140e-03
5.202669860987339107e-02
7.836294255043096957e-02
2.824596845682178850e-02
3.607382294306286930e-02
3.832415828457452767e-02
5.678686834507692266e-02
8.002818812327465448e-02
-1.324853260319448778e-02
2.100173797611793597e-02
6.445338792950114359e-02
6.183517785580042864e-02
1.033302023470347303e-01
8.340694898068518048e-02
8.650808290781160370e-02
5.270364843229230489e-02
1.084173038910121040e-02
3.944608746123418053e-02
9.571950134384746289e-02
4.303949496466175084e-02
1.017569486667450201e-02
2.083713466349353116e-02
6.770029311124498017e-02
9.735458729266294187e-02
8.992333071397252964e-02
8.569211075753199736e-02
1.166558974084861977e-01
4.807238559646538623e-02
1.193757943508485381e-02
-2.371257591476126636e-03
-2.079975152815072281e-02
2.063748536363275293e-02
4.407030005972151221e-02
7.994233306010206652e-02
9.106352613335752522e-02
9.032781206814471942e-02
3.798124790701296050e-02
7.452503874862964617e-02
4.357700486814956864e-02
5.221525980397509481e-02
6.121791231934255173e-02
5.247117322787872573e-02
3.748792772651284022e-02
1.135011773053053175e-02
-1.772916955881152085e-02
-7.666103789583156303e-03
-3.322927303703759883e-03
-6.637272737034329018e-03
3.009678499474689392e-02
1.095675222900661522e-01
2.704798711914426293e-02
-7.606223845682415219e-03
1.702381653398837152e-02
5.760351426002319891e-02
-5.827028178270604597e-03
5.301591209757927636e-03
3.102785680815586811e-02
-1.828719376209637232e-02
3.782266752177405877e-02
8.432358035230930193e-02
7.509434187958596851e-02
7.973313073872290158e-02
1.163004986942562935e-01
7.201392890239410871e-02
5.559479769683026845e-02
1.547403862372481384e-02
6.355137185063725047e-03
6.979242948074261543e-03
3.128675808739272285e-02
6.381930442706240658e-02
3.308107535077745714e-02
4.653084891882527940e-02
6.647675057428331646e-04
-2.373700101922483069e-02
4.030701415838637558e-02
6.503947840720204765e-03
-2.112020639831525132e-02
4.962888314950786306e-02
7.965595976100761644e-03
2.490053648860735686e-02
-1.344052568831936856e-02
8.218356568209166102e-02
1.208467997005892441e-01
1.117918790052473271e-01
5.580899430835074143e-02
6.905034785054267599e-02
9.645884529529744067e-02
4.458696811504263280e-02
7.019920869875501124e-02
3.796207072934944249e-02
-8.782836678734001756e-03
-2.740986006257598029e-02
-8.897418445528748610e-02
-3.098679885980370682e-02
6.026683528538269441e-02
3.105259048784997020e-02
8.340294954411539563e-02
2.553768128950830718e-01
4.532553160181872487e-01
5.548007172756652672e-01
6.516692703778834694e-01
6.148071599312220359e-01
4.842264466276647861e-01
2.874113174581000574e-01
1.595170763436890571e-01
5.249775086157745796e-02
-1.983337800607881674e-02
1.843600492195444918e-03
8.726166886717165450e-03
3.531787006949907437e-02
5.094774830948133743e-02
5.025038609638479009e-02
4.101910713980073259e-02
7.061819115075952669e-02
1.154821051470556609e-01
9.996763980046925735e-02
8.500165628863519396e-02
3.092040069464032509e-02
6.378298787809344450e-02
6.087558641701594497e-02
3.893837024144355258e-02
5.596964345509264360e-02
9.142690635648181852e-02
1.175506847343201489e-01
1.327999488640234094e-01
1.343784885282024999e-01
1.539059055572835344e-01
1.294197580733686681e-01
1.057934554857085929e-01
1.196302150916301599e-01
1.770529881145668505e-01
2.425705318605220762e-01
3.176535929048731610e-01
3.250115498062070563e-01
2.842359639106517566e-01
2.345778606000942790e-01
1.984865800572372940e-01
2.461469915048537516e-01
2.874088439822921615e-01
2.725987086694778849e-01
2.265334589968631407e-01
1.713936877344071352e-01
1.629146325900338865e-01
2.513411923920102486e-01
1.855060689919318662e-01
1.900862090964143825e-01
1.612418203028355146e-01
1.813994821984123984e-01
2.271198888770425139e-01
2.555368481359596711e-01
2.195510311955162774e-01
2.044952273463646331e-01
1.553307135565513974e-01
1.320286135564274765e-01
1.621560471532461079e-01
1.846556197410906264e-01
1.553689517801264408e-01
8.768200678871959641e-02
6.816844031836237494e-02
5.778111310126849559e-02
1.289615056183192054e-01
1.156655301874639219e-01
1.252532747409108860e-01
1.880035068138104781e-01
1.314603801460582366e-01
9.842798954933518196e-02
1.188196166279017335e-01
1.018652971501244342e-01
7.654721927235236256e-02
1.883081558435430528e-02
7.341340123434553222e-02
6.331624210216969806e-02
8.021901089714297828e-02
7.552375994346124943e-02
5.552979603091199451e-02
4.366813333367142863e-02
1.957963545938752256e-02
7.291048951683830326e-02
9.846104604072415667e-02
6.807535224050188793e-02
-1.182142286863677172e-02
5.064736040418968410e-02
7.383450849580741604e-02
6.022464979326563883e-02
2.877810185371630636e-02
3.789616504458000190e-02
1.160093516286100912e-02
6.470520873109106286e-02
2.861268989236145227e-02
1.074991623924422685e-02
3.097285936907276382e-02
-1.779809590661755869e-02
-8.222437892783404645e-02
-2.515182459466137194e-02
1.688204044361327552e-02
-1.449726400739408116e-02
-3.959309073608061058e-02
-1.657546063454733154e-02
-5.197311141933898260e-03
-2.673005871211846241e-02
-1.198491128160657226e-02
-1.616567058702041149e-02
-8.064223165982664643e-02
-4.258533908141354934e-02
-5.271725920135253429e-02
-8.258675709907720153e-02
-7.685417666390760572e-02
-1.029023086009348831e-01
-6.297682069537559324e-02
-5.447035412849529634e-02
-4.434733663896082284e-02
-7.022435399652764143e-02
-6.056634539993059618e-02
-9.177875016806669173e-02
-5.917329842941756318e-02
-2.919910885853969906e-02
-1.404227190401458741e-02
-2.294649930439049412e-02
-4.947989099963415183e-02
-3.913630051176889002e-02
-8.611556319136837168e-02
-5.694977857966741774e-02
-5.371204231329258089e-02
-5.931360331832924437e-02
-4.797498869962792123e-02
-3.037979662339352488e-02
-4.915834809472093003e-02
-4.977363266792662194e-02
1.930035602534038719e-02
-8.850878701674808058e-03
3.941318602473620203e-02
1.207181407430615167e-02
1.027947517540150901e-03
-5.272530349681185668e-02
-3.318234349041995074e-02
-2.049588541831240396e-02
-1.084058904701430681e-02
4.723111206884414437e-03
-4.904747332205794397e-02
3.859549904902728756e-02
7.833374791683844762e-02
7.800939456165240093e-02
5.492930312909938967e-02
9.893497353849159404e-02
7.308164820037074683e-02
5.090929073371801977e-02
4.418232383996912455e-02
2.938939401778823540e-02
2.587230858002302625e-02
2.274693099987147582e-02
1.621180305885438350e-02
-8.247341228769185933e-03
-4.632227151529476339e-02
-7.569694634628199026e-02
-6.734985153734926455e-02
5.341361187611479849e-02
1.831328550169298575e-01
2.814900029007255666e-01
4.655355438308396709e-01
5.980723426176272062e-01
6.707080651651902148e-01
6.485558553186044906e-01
5.051081494568275820e-01
3.394571370049400683e-01
1.015608632717664161e-01
-1.047541697906809177e-02
-1.170308499015325909e-01
-1.776201270566841461e-01
-1.665633650183814263e-01
-9.275329982975091814e-02
-3.291950620559530583e-02
7.011686080170567714e-03
5.555158999780365758e-02
-1.988173123947243465e-02
2.852209133194286150e-02
3.554759219232388884e-02
4.042780449833571071e-02
1.835954525271565191e-02
7.160308764266529180e-02
8.774597634270313307e-02
8.145629396296244495e-02
1.303545185375944437e-01
1.444695789919294149e-01
1.766881557287620641e-01
1.022162700363134086e-01
1.405485724566551686e-01
1.369141770475527098e-01
1.333325870136455316e-01
1.951523670554130285e-01
1.734460802539404267e-01
1.988628589665138169e-01
2.305727597107422866e-01
2.413071542103061851e-01
2.189656030669260012e-01
2.080078850581890404e-01
2.179400001664963948e-01
1.835374748449746796e-01
2.006454874726704141e-01
1.564875226084447846e-01
2.070744675780626931e-01
2.120521876878942724e-01
1.967522220484868578e-01
1.676171792408445715e-01
1.783936815158252143e-01
2.298631954218992857e-01
2.613136578512836872e-01
1.942171575910063563e-01
2.103880791492485358e-01
1.502529222158516253e-01
9.551636254212775290e-02
1.130167335453421684e-01
1.464418897314607448e-01
1.031712446474680467e-01
1.196695677702515198e-01
6.430207421594326400e-02
2.494671963538303006e-02
7.018665575900720488e-02
9.687430514306108464e-02
7.254837254639215360e-02
6.609893962912390120e-02
7.528550807734310513e-02
7.519581938076580485e-02
5.785158735840233157e-02
2.049136390907384600e-02
1.724934970922450267e-02
-2.441122944511108644e-02
-2.646034702122616183e-02
-7.150520699624030030e-02
-6.689685637520211003e-03
3.386002870271023757e-02
4.028017209753971539e-02
1.078253356854855238e-02
1.640976278466253768e-02
2.339944992861671402e-03
3.519677427897289351e-02
2.949335774711095079e-02
-1.847314257348429967e-03
6.159743777296236567e-04
-1.144659999571195907e-02
-3.927272521503451241e-02
-2.961578168488567669e-02
4.982844147715895233e-03
1.987241389088101329e-02
6.888573945793133313e-03
1.999154862671038285e-02
-2.102433956379048952e-02
-2.527588797220997607e-02
-2.431982762349808869e-02
-1.192657690325223119e-02
-6.007320983567645406e-02
-4.276253694254917442e-02
-3.505076601644700751e-02
-1.376896466104281236e-02
1.384513093656156504e-02
-4.462952464576917799e-03
5.256910051875504641e-02
8.419676563236333511e-03
-4.246665078087816236e-02
-5.016967270670890516e-02
-6.221313163207257274e-02
-7.712090615094774337e-02
-8.316070715866964724e-03
-9.073463703802076008e-03
-1.968143325472321292e-02
-3.118150484919718357e-02
-1.328300000778003670e-02
-3.357641123362490460e-02
2.335174065441589231e-02
-4.241352498221709344e-02
-8.073863483885101999e-02
-1.163433215854777630e-02
1.472436062259920020e-03
3.875384651491931703e-02
-3.829837301858152881e-02
-8.984305729638292215e-02
-9.392029757324826811e-02
-5.963214686586432861e-02
-3.435154044718554539e-02
-1.653915007493088341e-02
2.132619867224543400e-02
1.608037417308400691e-02
-1.895038503981968242e-02
1.974393149385238536e-02
-4.322794682765483676e-02
-9.880556960077152562e-02
-3.051828043133912594e-02
-6.602126855642231895e-02
-4.308318361596525509e-02
-9.599213507004557278e-02
-1.065151870859508965e-01
-3.208405608258219077e-02
-5.606352128247240468e-02
2.463948659903870964e-02
2.954966295323530751e-02
-6.705831903114523040e-02
-9.320003901905365984e-02
-9.509184088816621805e-02
-4.669752059899705265e-02
-1.494022522248562856e-02
-4.883775550749025474e-02
-1.321387036785150182e-02
4.515589263653316254e-02
8.001156863623264115e-02
1.045355896016153252e-01
9.288024857902302256e-02
8.456035804432569802e-02
9.142878745000926344e-02
5.524020092249595781e-02
1.623652360739687162e-02
2.708473065422330878e-02
-5.093696474865704038e-02
-8.757906490459224647e-02
-9.766523955672007373e-02
-8.858111696658292622e-02
-8.715348092054085727e-02
-4.200639639022919758e-02
-2.027536215807677900e-02
1.176253343475673202e-01
2.065560647919134907e-01
3.635446094604860567e-01
5.459912136002760263e-01
5.937820318723351365e-01
5.869956794668067523e-01
5.269642961791927149e-01
4.204187813677359165e-01
2.280599700833263743e-01
1.585748729634501586e-01
5.497461523724016252e-02
1.061100925867044797e-01
9.947342936509488698e-02
6.591711221621010530e-02
5.858484382482858494e-02
1.561271471891859802e-02
2.244775198934033378e-03
-2.240183111509316816e-02
6.784061089729259697e-03
-1.908347898604764725e-03
-6.515660793530593520e-02
-9.182984482406189586e-02
-6.038237153882186625e-03
9.370359017176169147e-02
7.487885770310187539e-02
8.582257980846773326e-02
9.468714972055530810e-02
9.447700000356709649e-02
7.427935366520860283e-02
3.960495798188598537e-02
6.457829112181209807e-02
7.138954370078515188e-02
2.501928559941321573e-02
1.593296145918790541e-02
8.072635447128537201e-02
1.164952019777459186e-01
6.559674113100244508e-02
6.068518837537500987e-02
7.596795001838832495e-02
1.298959900676384116e-01
1.481947617624061464e-01
1.521852865271512700e-01
1.329172386104129355e-01
1.497565697936491524e-01
1.375816638138200876e-01
1.419654539466978227e-01
1.742471105704687939e-01
1.206488017346047242e-01
1.381319351468141832e-01
1.569713110041564830e-01
1.518627948148432716e-01
5.362390665219492203e-02
8.308343810231547111e-02
4.534255411387766443e-02
9.937928100591256197e-02
7.651908191075515453e-02
7.079037617563460616e-02
1.222073905343498690e-03
-4.007844114548013426e-02
-9.530750362682555155e-03
-3.301488530939958310e-02
-3.252915397858492652e-02
1.307600436799385979e-02
-4.286501719027731999e-02
2.205386877935276713e-03
3.341874265325654736e-02
-1.803731118627990848e-02
-3.374006944653257234e-02
-2.583993257664460308e-02
-7.956128300763697092e-02
-9.434054288417355327e-02
-3.309579124804345324e-02
-3.010037807395844756e-02
-3.203844118476942976e-02
-4.194738019196032897e-02
-5.068938277866459619e-02
-4.904186025978111291e-02
-9.801589677221195229e-03
-3.786397958355117166e-02
1.152561750257009854e-02
3.439990347319477060e-02
1.197399950306960240e-02
-3.726422269495301143e-03
1.517346682945067832e-02
-2.306212299538786675e-02
1.093546914943815951e-04
-1.831364461188497023e-02
-2.213250531179572489e-03
-4.560576849425547474e-03
-9.151497896125805609e-02
-8.866858586470166559e-02
-3.670439536298345656e-02
-2.912190443897576253e-02
-2.058877650517253882e-02
-5.111001274541078498e-02
-2.963068387569871287e-02
-8.069571992858211307e-02
-8.400745397109291024e-03
-3.206316164044219208e-02
-3.471529884589957815e-02
4.063318404320943183e-02
1.667737859135320216e-02
-6.130519208630585970e-02
-3.692772611719991049e-02
-5.259180448727206886e-02
-2.023316367169568364e-02
-4.641274729408297051e-02
-6.596927833691509924e-02
-1.056394387228528908e-01
-2.670035241419434213e-03
-1.221019991997689125e-03
8.781467861661916563e-03
3.009351773579804767e-03
-4.718900014494735451e-02
-5.251189794208267064e-02
-4.711824306782583932e-02
-1.203216149876866481e-02
1.300623636508056388e-02
9.915393912972636503e-03
1.331720277971071981e-02
-1.100998460281474300e-02
-4.182673445007008273e-02
1.150094456016712355e-02
3.242704718943727887e-02
1.418152729092388153e-02
-2.356589490236379175e-02
-4.611597785111159337e-02
1.079086633210671331e-03
1.675604172560681351e-02
-6.907016885569848552e-02
-1.585828361856689989e-02
-4.090483422564313715e-02
2.411955579956968909e-02
1.475170433033611006e-02
2.322285107582398866e-02
-3.759338123076546440e-02
-5.654083101955974938e-02
-8.345167302495153094e-02
-3.732324744586536236e-02
-1.025865319532623388e-02
-6.853473521674949276e-02
1.575184156655305701e-02
2.007188360071898714e-02
5.430060871015048030e-02
7.614396092140798822e-02
5.929277831656215580e-02
5.496707263877036176e-02
1.122966488669163709e-02
7.880389974839696610e-03
7.566401481100420989e-02
3.000241274129523267e-02
-1.364792864373374007e-02
-6.484849461466066223e-02
-7.555099096563634709e-02
-5.538730447532119044e-02
-2.807325267347925146e-02
2.134549894478476872e-02
1.363203077967979904e-01
2.480051341704814227e-01
4.261643488240323130e-01
5.014218914399855009e-01
5.581012030940497581e-01
4.972485007431471926e-01
3.026472077926939397e-01
1.326852132858644118e-01
4.483306641271131432e-02
2.714860141321135192e-02
-8.422558475880949358e-03
-1.004071146686652816e-01
-6.951758987763650977e-02
-7.085397824801999145e-02
-4.394207582975630244e-03
5.955709243555126764e-02
6.251297895945533145e-02
1.377050624091660236e-01
1.861521852553626732e-01
1.354466214183281669e-01
1.246173598565251395e-01
7.945128733971852653e-02
9.541801677543187976e-02
1.347044763485525931e-01
1.345094785958249051e-01
1.808801994635403920e-01
2.152031764188646057e-01
1.593059445877054447e-01
1.476719556839157788e-01
1.407909615328861441e-01
1.307853594144541831e-01
1.691793851669935733e-01
1.520872898177999533e-01
1.619458113209964190e-01
1.905590459172696871e-01
1.840383895799979075e-01
1.953099809364986505e-01
2.333055402399390743e-01
2.344567307490849073e-01
2.303341605053312868e-01
2.412013875511164196e-01
2.702231988527279416e-01
2.391862863592801869e-01
2.515516831938195974e-01
2.171539856958206449e-01
2.126569542989974193e-01
2.700004852243773623e-01
2.196000036826288304e-01
2.000954968229263498e-01
1.356328959762982955e-01
1.782156746972970163e-01
1.453591151689369032e-01
1.003842309346170691e-01
1.377572268422616042e-01
1.515857376005224078e-01
1.305646949009980073e-01
8.112449330125029445e-02
1.137928094626817210e-01
5.372503510445169467e-02
3.032552864321609934e-02
-1.598097558036099680e-02
-3.976250434533208644e-03
6.161530349868248047e-02
5.660475522778645602e-02
5.708042440870457479e-02
4.027201780095567007e-02
5.639302083099595464e-02
1.099392324137643817e-01
5.191656982983539059e-02
8.430315351400562152e-02
7.501876233188997656e-02
7.959040902445285726e-02
4.094955503117383988e-02
2.818258720182734850e-02
5.162370218874574174e-02
4.302401557493480688e-02
6.681549483746328233e-02
7.645717551374817123e-02
4.978916116033871991e-02
2.737395045729042534e-02
-2.096589490983188225e-02
-2.759954605421154755e-02
-5.712732173658127688e-03
1.691420409592863522e-02
1.259429257818650560e-02
1.228664462146467767e-02
2.998064179763019338e-02
4.843824838671197813e-02
9.374216504770892244e-02
7.783615990393230599e-02
4.437226037744486373e-02
5.754938234335265496e-02
3.381371658468967228e-02
3.546939467300162796e-02
2.385528069926490594e-02
3.873549475221688826e-02
7.215198496538023643e-02
1.093393746824364021e-01
1.150004600682822675e-01
9.055695678760709855e-02
8.193282828010903240e-02
1.102184027640993602e-01
8.257335440914090330e-02
9.947800727435848755e-02
6.379114632008300867e-02
7.167725051389586821e-02
1.069487094832637375e-01
9.840104093217422188e-02
8.892336236039147246e-02
5.239931334615120090e-02
2.997851176235312096e-02
-2.095680432707882485e-02
1.511395810221526081e-02
1.667925658171063794e-02
1.987167878273445737e-02
5.515968707781728625e-02
8.342451763093691741e-02
4.313215050906549913e-02
8.362052636211576850e-02
1.076181185908488269e-01
7.683615339719976345e-02
2.638136320569783519e-02
6.327775998533582968e-02
1.805465032368537906e-02
4.570922755232114526e-02
8.838296955349746187e-02
3.751689194150599482e-02
3.880769740640641063e-02
9.550497821755311867e-02
8.577529522200852408e-02
8.075903656293906274e-02
6.434925197120475171e-02
3.748233272032153174e-02
7.743977800723164662e-02
6.565463014203704040e-02
6.227546810747481426e-02
8.569469757653851161e-02
1.154263854946242090e-01
1.689990586713412957e-01
1.687783470862646573e-01
1.009947216506879297e-01
6.600880606994961874e-02
2.479682212865480517e-02
1.976112256576641885e-02
1.680121651873092703e-02
2.598064587980099260e-02
1.929502633744153636e-02
2.041972277950132586e-02
-4.383004954149120197e-03
8.062214055007548702e-03
4.301240048876881633e-02
1.322674799417103975e-01
1.822750849504456427e-01
2.802232989111893557e-01
4.334266116750342679e-01
5.875903235321249252e-01
6.090887298318423682e-01
5.220275599926246235e-01
3.661973606510021129e-01
2.812416587895265052e-01
1.679878499088243160e-01
3.577928757445645452e-02
3.233335638979629306e-02
-3.536599932376055522e-02
-8.935008833156217467e-02
-1.187441034172922877e-01
-7.148652560286970770e-02
-6.906736315289113692e-02
-8.760511109109500594e-02
-5.385821383142050389e-02
-6.555642267730206474e-02
-6.056615152836282434e-02
-6.669340516233934757e-02
-1.617523784127959663e-02
4.368319705973776335e-02
8.043104091492772612e-02
3.277448686982097070e-02
6.458487038885588061e-02
8.009827349100881455e-02
4.257476647399226211e-02
1.193979469381863112e-02
-2.776582987112363732e-04
7.961991933949993938e-02
5.475587253473188087e-02
1.136702560780162019e-01
1.312999084994660726e-01
1.261920547133469350e-01
9.952321458938508114e-02
9.833450111247897529e-02
1.169166721762867900e-01
1.374279207475745945e-01
1.306310870798995105e-01
1.712859150617413173e-01
2.078983201116437196e-01
1.787962075925875749e-01
1.973960228876150969e-01
1.567218240258131390e-01
1.430110934841763715e-01
1.436763124550589077e-01
1.206794920875129545e-01
8.843063568472672720e-02
5.206426688514528833e-02
6.874496841549559978e-02
9.798049314952794742e-02
5.870484119192439371e-02
7.372215536063977948e-02
8.067944508847671448e-02
4.953515236027489915e-02
5.778265950125671679e-02
7.248798563172449694e-02
2.572125888798036317e-02
8.328613948013975643e-02
5.336355798103014497e-02
4.312709655951831034e-02
5.668360916649270442e-02
6.412250481799441904e-02
6.528464192114358244e-02
8.104320416399868332e-02
9.221277599850630224e-02
7.190965714876307313e-02
2.539577189893083356e-02
4.500293467825827731e-02
1.096390987988448001e-01
7.012160376850132271e-02
4.059059919017594248e-02
9.734899759468174096e-02
7.280809160005120850e-02
2.881842132833922418e-02
8.892468415104373691e-02
8.274166541622737792e-02
1.320375186348282104e-01
1.069039546465192919e-01
1.147795332935725998e-01
1.010097798686502291e-01
2.821102799206606435e-02
5.366868803214153161e-02
9.612601736494441607e-02
7.241175976055098940e-02
1.154287224177719118e-01
1.069749645300228924e-01
1.247896415915706742e-01
1.301766632997644613e-01
1.661694222468826088e-01
1.226240774757967056e-01
1.284589349887549914e-01
1.006555015943376985e-01
8.882975151675889802e-02
1.463704734773548788e-01
6.597174305988176557e-02
-1.169343674332039285e-02
1.469335189009194145e-02
1.594837511829871879e-02
4.521230232335805149e-02
5.512590065011605672e-02
5.848621501998196859e-02
2.867778218840360757e-02
8.549432278357699255e-02
5.535437672809544879e-02
3.164380991989966529e-02
5.984020829187654267e-02
6.178314150662217452e-02
8.956583188864815359e-02
6.856926576924782246e-02
9.818076102407975736e-02
1.171765952257635135e-01
1.206357661040859952e-01
1.094892157346929462e-01
3.943948877638880218e-02
-2.316475719311126419e-02
-2.241219947363900372e-02
-3.312846300554129347e-02
-5.110423417187356931e-03
1.619868706864987379e-02
4.196087315163116171e-02
4.452670350368164581e-02
7.297902141253767572e-03
4.551030688400312108e-02
1.984716061230894571e-02
9.596968770450069186e-03
-1.463632082136139684e-02
9.558863073298035085e-05
5.306409388880055367e-02
7.531731684343481725e-02
8.859412954957435193e-02
5.219266187024322601e-02
4.497419951248697589e-02
8.796606635600044688e-02
1.058808277001581366e-01
3.795705561159272434e-02
4.648097533900914097e-02
6.429305297160139987e-02
5.234139755348739959e-02
1.017642776724783926e-01
1.224833010662757793e-01
1.425254502672576862e-01
1.702506530997993095e-01
1.136783902264588836e-01
4.969783168856943545e-02
6.531456201444751919e-02
5.902664957492917419e-02
9.103757606623803789e-02
5.921615400673897744e-02
3.691579165691979969e-02
6.483599677456926280e-02
1.113776203049919172e-01
1.922397259184910612e-01
2.768906807851238550e-01
4.169635665746265207e-01
5.465160080023183653e-01
6.861833101423616688e-01
6.952373438105753367e-01
6.114876338193996341e-01
4.963448136706297698e-01
3.402296347404616395e-01
1.892709467226293407e-01
1.257618027577526998e-01
5.281431011439283868e-02
3.213758833005594256e-02
1.379230090238804107e-01
1.734316313139006027e-01
1.440160649427176254e-01
1.521292538969038488e-01
1.646516689648593601e-01
1.291118703730412265e-01
8.512815393848094381e-02
1.102267000229814886e-01
1.930184979500345344e-01
1.887916114921145971e-01
1.771291910685290905e-01
2.426427015824969835e-01
2.174542895670001919e-01
2.030571893858886812e-01
2.558648356896097154e-01
2.818601344769019468e-01
2.375260560991696024e-01
3.016629742205787501e-01
2.318333212035328106e-01
2.231431181964337873e-01
2.228228745853975679e-01
2.706858882268233790e-01
2.868126393372435468e-01
2.929490123791090861e-01
2.659672842833439299e-01
3.042740335192674617e-01
2.712115726628881451e-01
3.059890359842974972e-01
2.990281133132370872e-01
3.310339317011925520e-01
3.335423374091327497e-01
3.508614302622038439e-01
3.400773643170263982e-01
2.923003401695776216e-01
2.689878084908506883e-01
2.304322705974186092e-01
2.331086634714965578e-01
2.245301071933059056e-01
1.846034262553110927e-01
2.006688929487968620e-01
2.160704034592384193e-01
2.107861528661887363e-01
2.219539783311739733e-01
2.772568736567729841e-01
2.167087174991853549e-01
1.397345917700374418e-01
1.627742280161003363e-01
1.277497157865873922e-01
1.459188692944282661e-01
1.884346025260012769e-01
1.397778055493948124e-01
1.598630499794969628e-01
1.498807066563114243e-01
1.745824244971683759e-01
1.532100354377961549e-01
1.698700356738079287e-01
2.165506588908185370e-01
2.175479763428874447e-01
1.686949143915994209e-01
2.127593354633925127e-01
2.043637743825888475e-01
1.960567798926804439e-01
1.776843032684905510e-01
1.440501908379309415e-01
1.287170687423175586e-01
1.302305955112012525e-01
1.555485423598875483e-01
1.847210783025245162e-01
1.213647557520391856e-01
6.224655408648878396e-02
1.061552039017806398e-01
1.317226631192716102e-01
1.332971362909231849e-01
1.333795572413788710e-01
1.502264936453091282e-01
1.864855161008795170e-01
1.451825871628617259e-01
1.205612280359691091e-01
1.418714832214169053e-01
1.293048885396226866e-01
1.155260572822043447e-01
1.482058904409116196e-01
1.632636687613078230e-01
2.060400112212809609e-01
1.318705368864394600e-01
1.082426534822826941e-01
1.207533615722878317e-01
1.624482859381839728e-01
1.308534567426458406e-01
6.408881022845737407e-02
6.656048392684849047e-02
7.691434403962568722e-02
1.383161310244229725e-01
1.265184471443019931e-01
1.135745716834853231e-01
1.140552555303536858e-01
1.151362796672476679e-01
8.948400388769228719e-02
8.440493228900763922e-02
1.178108342891871080e-01
1.300234112551817700e-01
1.729284630398638667e-01
1.228728707851925589e-01
9.320562067050086608e-02
3.708800318389335327e-02
6.875028419368875432e-02
1.118038275418337391e-01
1.018110533600617013e-01
6.119866933282168409e-02
-3.319201677723371269e-04
4.719705108533278626e-02
7.055913199035564187e-02
6.731122720397443582e-02
3.438723357032663630e-02
3.036198632247012058e-02
3.555021046075865915e-02
5.410459607438876384e-03
-2.422823793598198605e-02
1.540283616633852937e-02
4.401964093952726725e-02
3.721847681807252672e-02
-9.818282428736488376e-04
-1.796672418084335754e-02
-3.606427473096070202e-02
-1.260082725879841520e-02
2.107943511374611029e-02
1.375510898654539599e-02
5.067510249658550153e-02
9.104705861591412541e-02
3.924650163964377159e-02
8.890917076361470883e-02
1.253608894896084680e-01
1.170243022175425640e-01
1.488969579537506027e-01
1.228811789891418871e-01
1.004256923885033237e-01
1.034240610231210028e-01
4.146337171302658803e-02
3.556632968100438552e-02
7.185324981216915929e-02
7.065859873153859660e-02
1.372040643899447368e-02
4.182784078284317725e-02
7.726832131016148075e-02
1.770232896275762413e-01
3.381051907386455335e-01
5.087876622178038044e-01
6.234985982968037632e-01
6.655867231774379444e-01
6.338385590212521903e-01
5.488293289146322085e-01
4.206974575040288711e-01
2.380402047660977460e-01
1.578967342300987287e-01
1.178056290663412470e-01
6.258398293350192487e-02
6.804409195817544276e-02
7.061186093435821431e-02
3.794160071268311979e-02
4.734773375950773744e-02
5.710641894753407805e-02
6.446806577836337870e-02
9.524582646102072725e-02
7.228212822565430185e-02
1.232205985702460871e-01
7.738357886789951068e-02
7.794505478243740626e-02
1.146463399117532006e-01
1.321950245928863454e-01
1.481874263013330528e-01
1.694041711111724247e-01
1.377619183196405472e-01
1.094101539200922346e-01
1.307501360532748458e-01
1.963990874301804190e-01
1.573949794735150509e-01
1.459173414117412027e-01
2.089806761271358060e-01
1.209625459993943358e-01
1.607204738256267917e-01
1.565042517696980662e-01
1.233620420639033322e-01
1.718618295024194054e-01
1.849454444616584758e-01
2.028798785716071362e-01
2.051894687945681750e-01
1.814965418509938977e-01
1.725655119832150974e-01
1.486399512319501737e-01
1.561763072543990716e-01
1.952737037884743898e-01
1.382605749222839964e-01
1.657981726351856477e-01
1.730682655043153662e-01
1.760112648794554535e-01
9.334350520073991797e-02
8.540787121264399595e-02
1.349044684725847487e-01
1.391394612848837475e-01
1.051367167068886777e-01
3.984051217996514155e-02
-6.300294453769367253e-03
5.147069163199924358e-02
5.228327538799827645e-02
4.545658901591097256e-02
6.863180642999820724e-02
4.638750267797735888e-02
7.093240044674167799e-02
8.428331943223189848e-02
1.057049851423834952e-01
8.852064227385886275e-02
7.974860699472985370e-02
8.672606842890054346e-02
1.730298981875889597e-01
1.261922511861217067e-01
8.630248294984743662e-02
8.219595213586268490e-02
9.027446342122039113e-02
2.717166270919587831e-02
3.930726364180729682e-03
1.473470317862853388e-02
1.561980037784695130e-02
1.186094922506392146e-02
3.283063216158273179e-02
8.343919782520838047e-03
3.562355429688128516e-02
3.908161381316448829e-02
-5.445867930840869731e-03
6.891754496948510056e-02
8.274169149465868123e-02
7.586948535038906538e-02
1.083757610673311278e-01
6.130285316187781414e-02
5.038143284133931449e-02
4.270822249534982767e-02
4.014389708433840215e-02
4.380336244675799712e-02
1.550339172004271820e-02
1.260526515894352245e-02
5.041401854436611957e-02
4.746460950416411806e-02
6.061166753769006710e-02
2.730258990584749287e-02
2.789769435850716212e-02
4.767640972202270844e-02
7.661616487299101330e-02
3.517488844341998266e-02
3.833054368438156001e-02
4.142054700885536289e-03
-1.506799016006444419e-02
-5.849123268039345402e-03
3.227033154313452279e-02
4.473942737459973840e-02
4.714210672697186078e-03
6.080836579993319224e-02
4.175795856578504855e-02
3.748437536826738914e-02
3.380206867383590830e-02
4.137051439802919006e-02
2.162912809459237307e-02
1.773601477405947757e-03
1.724669550035309862e-02
4.139079946023988682e-02
7.486392347356241039e-02
7.544047717282101329e-02
2.911901947117894948e-02
4.973507109750222727e-02
2.935705335195763765e-02
2.208978671539034433e-02
3.372381063275596558e-02
2.709561862867089846e-02
8.602576018906837874e-02
4.748580856722044857e-02
5.623886356733222291e-02
1.027516405557014345e-01
1.613993486933794907e-01
1.277243865765471942e-01
9.653719531881121974e-02
8.064870836908535900e-02
1.034170488569875757e-01
1.204085773420302541e-01
1.337166923688481446e-01
1.278336512476298259e-01
9.465854002162119030e-02
1.418565529940779280e-01
1.348600927023152485e-01
7.804987589980591500e-02
1.543556359497277874e-01
1.531349411207786892e-01
1.592774561070683936e-01
2.256903332378921156e-01
1.501735148583842050e-01
5.815165388028400301e-02
4.491159136753679337e-03
3.889357128677120579e-03
6.965711814529154666e-02
2.553214809967040838e-02
-3.560909177748954046e-02
-1.770506292353590458e-02
3.813725014097442412e-02
1.256913707937369062e-01
1.861610964565610649e-01
3.175347465801203750e-01
5.079694165949079077e-01
6.074034630912323873e-01
6.291951401797605259e-01
6.046300921199567746e-01
4.349682619377724380e-01
2.530225518178700894e-01
6.838273650960818850e-02
-2.258356862768848283e-02
-5.068930049940914562e-02
-2.113281274326082870e-02
-2.409183142075913692e-02
-4.481475720072555791e-02
-2.962580501788414367e-02
-2.505208389489504278e-02
2.728966540920307882e-02
1.838584949616454967e-02
3.680096523878096521e-02
5.050467708074453388e-02
5.829625060835676165e-02
8.385441566759334331e-02
1.119593069069522856e-01
9.496575832239551040e-02
9.628614508543353878e-02
6.092302361924960968e-02
1.078740119133973219e-01
1.660715932386158111e-01
1.667263729335749511e-01
1.243851577592654800e-01
1.349010167179621467e-01
1.819917352910589425e-01
2.082529682456167874e-01
1.545098055986279806e-01
1.942705511093540949e-01
2.370469914127892319e-01
2.343132112945990331e-01
2.289287984728047842e-01
2.137499078464407676e-01
2.150377182812033272e-01
1.808213896813802846e-01
2.203464803942372097e-01
2.576772972348204682e-01
2.581599595548029757e-01
2.815840815353820026e-01
2.465985139055251740e-01
2.709223829292808916e-01
2.643741168784678464e-01
1.656973252574827082e-01
1.099167868201870180e-01
1.002540536395534476e-01
4.525237405046746153e-02
8.060760368538424925e-02
6.347307031980162217e-02
7.771755637742361333e-02
6.436110311287392138e-02
1.011768222521351734e-01
1.011344709915429907e-01
7.425114091456284926e-02
6.708906921820570468e-02
1.012433159122145543e-01
1.028326815555764551e-01
1.011528812705851238e-01
1.037880669493930902e-01
1.043361948431028308e-01
7.194539132399770109e-02
7.812151463453081979e-02
3.928663031739799971e-02
2.718091404956249693e-02
7.150296043920410793e-02
7.843086246631969516e-02
1.042796449437269624e-01
7.745322061416567982e-02
1.101390899362053866e-01
1.557867446541113809e-01
1.809824708415403438e-01
2.127181559833010160e-01
1.903344393453839933e-01
1.898269349146491369e-01
1.396087488482958550e-01
1.163954089689558380e-01
1.600853614229836019e-01
1.795065674202776518e-01
2.302918063841835894e-01
2.152838668815582057e-01
1.999403389748323767e-01
1.971579998137373557e-01
1.833551529938192426e-01
1.554235295595365884e-01
1.005269702142803506e-01
9.258843020864160334e-02
6.574852202562594949e-02
2.131616272066121434e-02
2.365632846634351319e-02
1.354688552011028002e-01
1.424855675855402903e-01
7.317895621993830702e-02
1.152413735428215458e-01
1.085457159395305793e-01
1.645179976646493070e-01
1.289227537458800532e-01
7.800969172416602482e-02
9.546201756263611449e-02
8.016161908941699110e-02
1.012998513552904323e-01
9.500428667975797936e-02
1.214969479202242242e-01
1.130263376331201719e-01
1.503550351315209865e-01
1.436132116264490499e-01
1.548791894439092431e-01
2.162331723399766870e-01
2.206613924858964182e-01
1.637296477713011955e-01
2.210097641493453946e-01
1.481128070466409263e-01
5.379664177000074987e-02
6.789905738432502891e-02
1.399706437937255910e-01
1.298057045039017476e-01
8.232469114915488828e-02
7.624003697956958925e-02
8.052148128156760842e-02
1.117848708297802807e-01
8.129721108340812186e-02
9.548189513357289993e-02
9.479391873272260960e-02
7.652045286885432451e-02
8.580366607622461061e-02
8.990068548601037879e-02
3.012563947888689808e-02
7.908459962358269091e-02
1.147897736240415523e-01
9.683578033803408314e-02
1.070900213741967089e-01
1.619496052735628355e-01
1.416784178620574541e-01
1.976160952913172952e-01
1.774008739059680928e-01
1.406431648088237452e-01
1.486971496334617282e-01
1.384622169955992688e-01
1.283964883090391584e-01
9.240638687485534797e-02
1.404545200009073014e-01
1.516923378426504043e-01
1.158423632671068682e-01
8.403427735517189634e-02
1.828053209680977065e-02
-9.526643541128521769e-03
2.979184934929886980e-02
5.912809905318404391e-02
1.346882978960571853e-01
2.084439191583871420e-01
3.658557890685956715e-01
5.898528703664263073e-01
6.886919547425656152e-01
6.865871533994576392e-01
5.435678096886423782e-01
4.263424225309927484e-01
2.642409599264908815e-01
1.313444256681848277e-01
4.892950071978711957e-02
1.076907118462368529e-01
1.273254781704315497e-01
1.683701171158237253e-01
9.223110044139064267e-02
1.338580197185858800e-01
1.514845296850927947e-01
2.212045009002530649e-01
1.980659262975973667e-01
1.638326826099849032e-01
1.720956780020720944e-01
1.038790220253538871e-01
7.511546435104433928e-02
7.143163811931504958e-02
1.027965755243751139e-01
9.569711963999158466e-02
1.108754434653365650e-01
1.355406611331646527e-01
1.706612936987771112e-01
1.622922123158352936e-01
2.000163455332846230e-01
1.780151120259422792e-01
1.519219413451886325e-01
1.121689881278833401e-01
1.577647808636178373e-01
2.157532041170684978e-01
1.768175833562724564e-01
1.912619168146715842e-01
2.281470927118889602e-01
3.191599774340942997e-01
2.843880240241282165e-01
2.649538348613073580e-01
3.028509338688379904e-01
3.350329914502012119e-01
3.121019021279817784e-01
3.034716049209049693e-01
2.971664362915543145e-01
1.939290740512188693e-01
1.548220265578793275e-01
1.496988216490915125e-01
7.918102570578784694e-02
8.900946363482620249e-02
1.210114981532325051e-01
1.287449082944258083e-01
1.333877828970346513e-01
1.383896154706503734e-01
1.087651001823175534e-01
8.754447014637710411e-02
1.037174741577379378e-01
1.134242530600812759e-01
1.322363032697153606e-01
9.807535639311953934e-02
1.115809899678132100e-01
8.567641157604957702e-02
9.447813717402293865e-02
4.832886124601092070e-02
1.094849823883720791e-02
2.471743829391283287e-03
1.467442302020788639e-02
4.560508172923837672e-02
5.386015186918701597e-02
4.376554778507826815e-02
4.855398889786186750e-02
-1.336855894385621801e-02
-1.880750883283177632e-02
-4.045883945596029374e-02
-3.857620079483396747e-02
-4.163046531817049534e-02
-7.011789328780479447e-03
-2.806123770949128099e-02
-6.845860433484995955e-02
-8.240880269200140384e-02
-9.111383512534924900e-02
-4.201408855967543599e-02
-2.556344184371533296e-02
8.475098190442918733e-03
-3.299146162474662219e-02
-6.142975275787096456e-02
-1.029644370378612339e-01
-1.160467242812367877e-01
-1.425335114697162675e-01
-1.334541890849359480e-01
-6.316537613776977700e-02
-5.140526559696675934e-02
-2.034180232686562395e-02
-5.290425269844473144e-02
-3.951700524902792416e-02
-1.230523750463904248e-02
-3.159327095317501777e-02
-1.722746514246371874e-02
1.634085501041250554e-03
1.760130694640775484e-02
-4.201061267800482169e-03
6.229433390372164647e-03
3.073342958682378362e-02
9.018498604591206058e-02
5.746360169597948542e-02
7.976550461750347987e-02
5.425012358205123786e-02
3.314536352466987412e-02
5.018696177450997914e-02
2.632518845648908895e-02
4.421874353815186121e-02
6.727767094266284831e-03
-3.380995840840305550e-02
-9.790375211205341877e-03
-1.276652202288758309e-05
2.495250266782345419e-02
2.733272475938546692e-02
-2.907124607636037139e-02
-3.044991035234479587e-02
-4.390409110267834425e-05
-3.068676048591088834e-03
1.647821563515318097e-02
2.490591986585323492e-02
-3.134845998521132437e-02
-4.280323810817603103e-02
-3.405099015257953554e-02
5.310877538398273839e-02
9.189931058688205479e-06
1.396261836821697383e-02
2.147809463021701365e-02
6.755390301710939571e-02
3.387229754381676505e-02
5.319280098779377575e-02
4.654204148080143960e-02
7.197357055235051315e-02
1.778112393799054225e-02
7.758828922219518365e-03
3.504119740788897569e-02
2.464816480603312931e-02
5.174443230934883120e-03
-2.386716780218657574e-02
-2.017985079080920202e-02
-5.597712147753799994e-03
-2.862925009859283720e-02
-7.082450911802851135e-02
-2.925198566463201727e-02
-6.048062267688699215e-03
-8.383612133015527768e-04
2.515130933185358297e-02
9.550020227562160124e-02
2.529521355993291087e-01
4.295181868134250736e-01
5.504454936848304225e-01
6.287375725176009844e-01
5.680497578384168245e-01
4.134936466753554307e-01
2.758029190387153440e-01
1.283723651388116449e-01
2.352753858112291430e-02
-2.272448169809303253e-02
4.566356724132837608e-02
4.706775207168171354e-02
4.073586134583805085e-02
7.466406710916240197e-02
9.874269123704916551e-02
1.142767137229180885e-01
1.275038313445024385e-01
1.310415100646783737e-01
9.956377927139170581e-02
1.102742934740597175e-01
6.553835897863606597e-02
9.772742269017579975e-02
9.320875022993378722e-02
1.071898397569584077e-01
7.900242964404199930e-02
5.813405945873088843e-02
9.716723881732307333e-02
1.017493029133001714e-01
1.202348657240707441e-01
1.418499914354157398e-01
1.423992399730514558e-01
1.399090380600284400e-01
1.372473208445802173e-01
1.745503838169524535e-01
1.922103674882741919e-01
1.472550238740924777e-01
1.724159252636732198e-01
1.893340501682369004e-01
2.209057023177322110e-01
2.453192486635400460e-01
2.349233883447944815e-01
2.242833217174305671e-01
1.913002982264619956e-01
1.269929925072051380e-01
1.451685786731848060e-01
1.655899557116445875e-01
1.093809019931706872e-01
9.587970906012451000e-02
6.164082809601398316e-02
5.343284904896861143e-02
4.494381504786661152e-02
9.813875948784814285e-03
1.403717888364475197e-02
-3.960204841149955746e-02
-4.978888777100422269e-02
-2.765837688608458605e-02
-4.654742232336833707e-02
-1.762472216443727174e-02
4.065704361570349895e-02
4.276537549476940731e-02
4.029975765643775687e-02
3.951969978730456023e-02
-8.573678158310810149e-03
1.582312502576099095e-02
9.871062645438612171e-03
6.056885669020546648e-02
4.916408453727871830e-02
3.238482844998441523e-02
2.866797835196190081e-02
-4.373904764832188541e-03
1.327470928351873192e-02
9.536564367240089879e-03
-8.333469578672078604e-04
6.281696732165942265e-03
1.272616763434526038e-02
9.691813147791134009e-03
2.916524817350371959e-02
3.619100548492147629e-02
-1.506575597569454611e-02
-3.650076184026399689e-02
3.718598024318498646e-02
3.347556984546883052e-03
-2.754381788464169839e-02
5.827296448466572076e-03
7.297274277639258233e-03
-4.226913209313413328e-02
-2.566405569158036054e-02
5.049038345535661332e-03
-8.379453242637113775e-03
-2.935811855818259292e-02
-3.585990770117049309e-02
-6.327278673408846810e-02
-1.054888922521286243e-01
-4.866209371980680792e-02
-7.279315423956872477e-02
-8.691713888226289264e-02
-6.960128822828755280e-02
-7.619325107305650879e-02
5.252529092836244473e-03
2.152529295400809270e-02
-1.823036103403054276e-02
1.912430134387983760e-02
3.551891295520928638e-02
4.205123543116591478e-02
5.816858639275526710e-02
2.309263753990758311e-02
-5.196348367173156402e-03
1.864456253532721652e-02
-1.517894993095994516e-02
4.520768016325487498e-02
2.862515012534491005e-02
-1.405771508333478192e-02
9.223347400700895871e-03
-1.104279021720511872e-02
-1.185831459455726627e-02
-5.008624962534416469e-03
-1.786098173112218856e-04
-1.319978581182214283e-02
-1.929820622777426303e-02
1.767074215621488448e-02
5.118713325230409006e-03
3.654640105563970731e-02
9.485345186043568633e-03
-1.878853120025190948e-02
2.717900911240151221e-02
2.822192803403221484e-02
-9.254773075088609802e-03
5.557200535605544278e-03
2.948894010979349889e-03
-2.468943874686634760e-02
-1.035417771650948976e-02
-7.201855981395485773e-03
3.675712384110046971e-03
2.313814936720781645e-02
-2.108948976361806060e-02
-2.655038152684470465e-02
-1.657367682816629495e-03
-2.311958469925193271e-02
-4.326476181427521550e-02
-2.207408336825505968e-02
-2.783603888889263356e-04
-4.510739762697833777e-02
-8.152203584361628064e-02
-7.799910376510577059e-02
-1.123019786372838891e-01
-1.679546158202485651e-01
-1.345138982491156376e-01
-1.269293356364467329e-01
-9.148603189885098907e-02
1.947868557330653672e-02
1.340746850898217879e-01
2.169047342771051046e-01
3.323053631752729831e-01
4.910773482254567890e-01
4.802828977108671848e-01
4.393091447222792212e-01
2.863415672457608196e-01
1.155596403913602133e-01
1.330258895962907473e-02
-9.218079501714221413e-02
-1.467301859770007710e-01
-1.608406204728495825e-01
-1.362084760019977026e-01
-1.084881993066291184e-01
-1.034091225701951333e-01
-6.111866620117328841e-02
-5.327510354703146600e-02
-5.277110013743870065e-02
-6.812009361051124534e-02
-8.343676468763203125e-02
-7.026999410153170200e-02
-3.094188904382047522e-02
-1.601038056113612829e-03
-3.040309026235664402e-02
-3.946349985773175972e-02
-2.578284749422039834e-02
2.181352992387837475e-02
2.066836572332830801e-02
1.505087949545647064e-02
9.067468259875821612e-02
5.503736600352335251e-02
4.331988132597910934e-02
5.514845505633172995e-02
3.990691248804201230e-02
5.727551325869598142e-02
4.139295968647976887e-02
7.636976233271233760e-02
1.334583487273907076e-01
1.405353862731869019e-01
1.033807313110506054e-01
1.086205765236059606e-01
8.033436391583234637e-02
9.953747213626859547e-02
4.348682781846169298e-02
4.862734437167029466e-02
2.739481596401011076e-02
3.449276122509314924e-02
1.633567714311362495e-03
1.217688234769431777e-02
3.135358289958731226e-02
2.032920287739642395e-02
-4.542588292516872017e-03
-3.215910036046390474e-03
-1.274970870748592944e-02
-2.063988368749854196e-02
-3.663338394244861074e-03
-2.252623693088978696e-02
-5.166325888757766771e-02
-9.338462964539367972e-02
-5.326499328585386495e-02
-5.087656290060894176e-02
-4.025104121943916952e-02
-6.011240190835127201e-02
-5.168006243108863584e-02
-7.189454690472120435e-02
-6.195376867538131965e-02
-7.488903391559918743e-02
-7.657521771284936385e-02
-5.375864231248374259e-02
-6.870311294580819239e-02
-8.093079104467693075e-02
-7.684069572635877921e-02
-2.493526138412636289e-02
-1.264842691207488518e-02
-1.006850514716314815e-02
4.579604878396675849e-03
-6.117695972519344993e-02
-1.229016962358085024e-02
-2.989435258384464528e-02
3.111691599726298593e-02
4.410749823880983495e-02
5.620137086721951891e-02
2.702410017512765078e-02
-8.633638897883801067e-03
6.062891227266151151e-03
-2.313994335231749078e-02
-4.044213082346925781e-02
-3.824603016763853530e-02
-1.024198681496069768e-02
-2.078460666446654836e-02
-3.732439461302788919e-02
-3.350498059741734147e-02
-9.064438862241397388e-03
-4.075144199515408350e-02
-2.447603346547595760e-03
-1.039766666646535498e-02
-1.104415950592808893e-02
-2.465397366604448609e-02
-6.712799886630688162e-02
9.414924915462925814e-03
4.803284958022858292e-02
-1.538111454297768493e-02
-4.358567346370099266e-02
-2.118394383893351662e-02
-2.219284644905510778e-02
-1.645624516952749750e-02
-3.475776671353119490e-02
5.372177820551655297e-02
6.081700316504767140e-02
6.066217863854940495e-02
2.852044874692521992e-02
4.971704328197035921e-02
4.818459511500639003e-02
-6.320479815663422596e-03
1.282766760404049911e-02
5.315498924485961146e-02
4.182921885452493133e-02
-3.294388978559508602e-02
-3.045338829715892037e-02
1.368561655191482401e-02
1.877874008610888601e-02
-2.800857267954604685e-02
-4.202680763206040337e-02
-1.950337030786894466e-02
-4.702676401417419522e-02
-9.939789073923518958e-02
-6.134967335232192204e-02
-7.563906131738387661e-02
-1.605536876365901144e-02
-1.837791833688519338e-02
-2.179977291056513916e-02
-2.023800303909235182e-02
-2.304627469353734415e-02
1.497897071841283734e-02
4.380097336125107765e-02
4.075291520334266976e-02
4.319622594512519814e-02
3.369177834798817162e-02
2.270421199588362748e-02
3.735821010453582725e-02
2.831804535868923112e-02
1.855617667365998258e-02
2.910900819009597240e-02
4.618886228308385217e-02
5.720697521965437127e-02
3.519608124419508488e-02
-1.201771639452092755e-03
-2.006038655857482478e-02
-8.631186650087663281e-03
-6.333116575606902166e-03
-3.530760866584931740e-02
-3.758710394715739089e-02
-9.675063966366659329e-02
-9.322867458456972345e-02
-4.158534871992235205e-02
7.346517900004789769e-03
1.191505511290334995e-01
2.659831121321029057e-01
3.484218161670662450e-01
5.273141518415481732e-01
5.927577242181587547e-01
5.354597326699648274e-01
3.887410956581814903e-01
1.982446770190028629e-01
9.504497353766473700e-02
6.132701439843004504e-02
1.115099878620552654e-02
1.224645675638398948e-02
-4.919894797206281201e-03
-6.006973577605820985e-02
-5.671228725545030686e-02
-2.256432560624282990e-02
-4.328234505213997274e-02
-5.612979552486835333e-02
-6.446284844842800621e-02
-2.853082140477898598e-02
2.958360977552638993e-02
1.724506267795516967e-02
1.472437963084007040e-02
2.899709207589903914e-02
7.794200500624330619e-02
8.214562980501048661e-02
9.625886678160308629e-02
7.979409328720166172e-02
1.192822549111412500e-01
1.266275050942928249e-01
1.241150858671198065e-01
1.363702030840688306e-01
1.229611394583448591e-01
1.529128833565149281e-01
9.723193551215836283e-02
2.666833444640157036e-02
6.416642789662233004e-02
9.104748641996758540e-02
1.458828729699488957e-01
1.716451862650368032e-01
1.298636190357354281e-01
1.719548701831286885e-01
2.212844507843557129e-01
1.935421673266165821e-01
1.470627682861452290e-01
1.415073216568740189e-01
1.212631436916182665e-01
1.135816078307622379e-01
6.646696318526665315e-02
1.017469831057573881e-01
1.582778803275640134e-01
9.578837249031035839e-02
7.387328925313312034e-02
9.194338484845296366e-02
9.025174594105170311e-02
9.948321465526625829e-02
7.626975812258920961e-02
4.770714649445641914e-02
-6.326216271931722757e-03
-5.213365595844640654e-02
-3.185424240745809987e-02
2.246552076325199210e-02
-1.265247207434700566e-02
-6.346425653322310123e-02
-3.157804223208647565e-02
-2.146900596790019683e-02
-1.457610372111422387e-02
-5.061714140462261063e-02
-1.040261627108793746e-01
-6.352666124906387879e-02
-6.988180113068730159e-02
-8.972021878852094734e-02
-6.946245727839361894e-02
-1.239129204286964353e-02
2.467708561798295439e-02
-2.884759590159733517e-02
2.042925048756548401e-03
-2.692054129471560531e-02
-1.065583722298524966e-02
3.067814203448149257e-02
5.544802947650001590e-03
1.369757402453175218e-02
2.281973095146865721e-02
-4.530644346974622982e-03
1.045818705123220671e-03
-1.248279899861633874e-02
1.704289688899969513e-03
2.562948286763046951e-02
3.390890494802280275e-02
-8.816072238117610149e-03
-5.980013097746058465e-02
-8.865365882436870848e-02
-8.545785886779969087e-02
-7.578434527787901442e-02
-9.805031190132060259e-02
-1.163344045382286585e-01
-1.089033638013411076e-01
-1.068007075085585234e-01
-9.829584343529976231e-02
-1.617111670351022434e-01
-1.844372571602706790e-01
-1.992080865444464111e-01
-1.715233643321661949e-01
-1.633423354898063673e-01
-1.346591831340631096e-01
-1.074871064985190861e-01
-1.037485568054736101e-01
-8.689391389984454928e-02
-6.174079580245559612e-02
-7.317684120098291722e-02
-7.638502612614342380e-02
-6.867159631194447167e-02
-8.745325476825444033e-02
-9.076978121347105410e-02
-9.779269914864849311e-02
-8.043897909366752585e-02
-8.544213129647454386e-02
-7.720770032393468874e-02
-1.245958663233629055e-01
-1.607385990360631345e-01
-1.383999393536395062e-01
-9.225552885210103193e-02
-6.219011866795292470e-02
-1.377476379810281537e-01
-9.440572441916543489e-02
-9.240602625719968044e-02
-8.476615398097046838e-02
-9.331783095066328859e-02
-8.765138730048152582e-02
-6.287414630279966610e-02
-3.053588837259778310e-02
-1.069901782603902007e-02
1.570126633419203707e-02
-1.090140914797012306e-03
-5.167069968527925744e-02
-5.554410503221284684e-02
-4.313892112267041917e-02
-3.425318614753193602e-02
1.422528672649397280e-02
6.237999727911833214e-02
6.664281385874860908e-02
5.904138384769802572e-04
-1.605332939307330120e-02
9.825030948290180977e-03
4.384285465732166293e-02
5.090155029148966254e-02
1.027730336088695517e-01
9.640199675131928825e-02
7.392344647017382031e-02
9.774352428898241962e-02
7.448634093528304356e-02
3.331991493902045770e-02
2.525679978148307608e-02
8.507630121286594016e-02
9.849798352220673348e-02
8.155949725521233207e-02
9.060824703087455578e-02
1.025943685389328758e-01
3.544542132599292489e-02
4.172614220301383570e-02
6.817052526060954354e-02
9.206668328782208199e-02
1.626721548984332577e-01
2.661067528900068480e-01
3.825235976997132248e-01
5.322855173502551995e-01
6.729167320710700562e-01
7.188545145533100644e-01
6.489401861623877998e-01
5.241070624250591115e-01
3.647525708376156972e-01
2.125169841898388590e-01
6.810819237967261075e-02
2.655835962314478937e-02
1.242190733692846022e-02
4.307485670218069718e-02
5.097728927152607448e-02
5.630100949598659810e-02
2.007453865335906418e-02
4.264232910659036813e-02
1.065757237186485407e-01
1.004292030681262632e-01
8.810463708134644301e-02
9.327251250271451077e-02
1.346492281779714251e-01
1.771945580980948121e-01
1.908059390218235229e-01
2.020115416592752067e-01
2.302919086358802825e-01
2.537153015227995856e-01
2.904122216411940682e-01
2.146012200056175434e-01
1.753582921542098383e-01
1.871687586174250739e-01
1.603704224740171713e-01
1.786366673438068153e-01
1.898166080313352100e-01
1.811432207676476613e-01
1.457936017789483729e-01
1.995486125292258439e-01
1.773838213761766980e-01
1.964066398092058907e-01
2.214503511793790846e-01
1.931227808190004447e-01
1.364187091261851448e-01
1.677056012349707470e-01
1.963255166199950885e-01
2.345956604310130977e-01
2.492617149753131867e-01
2.308859333742656061e-01
2.255482502841482106e-01
1.994433815858220049e-01
1.644212986711697799e-01
1.519736243978431212e-01
1.212537644539332243e-01
1.406269892266558963e-01
9.781944148240795389e-02
6.310421503196458892e-02
7.328230961207486682e-02
1.135733239999322797e-01
1.198002578595230017e-01
1.088417399773595057e-01
1.045622421204704111e-01
5.810945142313886369e-02
1.999285852013830966e-02
3.071679684273931343e-02
6.457488413820647311e-02
4.616540844695100898e-02
3.722637094076941544e-03
2.408422425684889068e-02
5.309985927055065752e-02
4.832920917319293713e-02
5.013805299816961186e-02
4.094870230258110255e-02
2.366022543935180494e-02
4.956621376501303688e-03
1.600288284467123873e-02
2.844478319898007326e-02
3.683998628893503380e-02
7.199848610147982497e-02
1.035911439003690121e-02
-8.919136523691355289e-03
-1.010106492017742719e-02
-1.155679987967168920e-02
-2.409031640667078089e-02
-5.997516193565623210e-03
-2.603838806212822876e-03
2.155467358737880867e-02
1.980611197914617858e-02
-7.482663344868412114e-03
2.094130888250149078e-02
6.453581935214394716e-02
4.567175043585033206e-02
2.682765605192879987e-02
1.105925987690378753e-02
-6.993602064047019229e-04
2.200976883171426590e-02
6.601593012673996619e-02
9.061767731246098134e-02
1.010197105016641117e-01
6.520331917682706258e-02
2.930352072297381233e-02
1.025381299244094296e-02
3.435078309614550407e-02
2.298568076919985798e-02
5.939505422919792027e-02
9.142893057542755830e-02
5.024276988240120728e-02
9.717421828171335374e-02
6.283867855498717625e-02
6.594945745316896368e-02
1.101500663691681037e-01
8.528879290046967321e-02
9.020959104561027120e-02
8.359888879992292965e-02
1.132004783205553949e-01
1.631685167754023114e-01
1.552006574004528294e-01
1.746991364526639390e-01
1.675412223686670310e-01
1.308755155358166666e-01
9.168601058814039584e-02
9.638524902004214079e-02
1.004753890434997854e-01
8.178495060765680891e-02
7.624529226111856350e-02
1.335195503039078857e-01
1.441530616754639893e-01
1.289562143606416966e-01
1.298159638713693997e-01
1.644444559553776553e-01
9.651067638141838656e-02
1.180880390731660345e-01
1.352160678951994655e-01
1.604688087528769458e-01
1.445711385285270434e-01
1.381537150824756754e-01
1.117391187275665054e-01
7.356140915462761054e-02
6.532069804721676864e-02
8.548608022364798109e-02
1.276902245158417493e-01
1.035825582141152723e-01
3.667560579218830108e-02
3.292586044472420315e-02
2.739706480813316331e-02
5.365811310831047898e-02
6.494992587584590138e-02
3.168952542841847048e-02
5.716676883733673442e-02
9.553127363494803848e-02
1.024272665199503773e-01
1.340435092322226907e-01
1.615813264316782183e-01
1.671693370541997292e-01
1.915809866906797443e-01
1.498650776075251545e-01
1.182411705878566727e-01
1.474653487300775223e-01
6.672174731627364408e-02
-9.205954245995087715e-03
8.593856482054310075e-03
3.059106647588446387e-02
1.828281578065724111e-02
-2.439091152933399453e-03
6.374101603170789776e-02
1.396706649438338166e-01
2.478319746126732281e-01
3.939414333650475553e-01
5.054095348662883680e-01
5.955009054166514604e-01
6.257866177714581646e-01
5.336926514040088998e-01
4.052525611745024792e-01
3.028484137400071496e-01
1.976333451176507383e-01
1.218581698358142673e-01
3.952387675467475270e-02
3.312558610950162852e-02
6.732306188736071617e-02
7.797012839796647887e-03
-1.446582784603218236e-02
6.061103734249354003e-03
2.814697547643123243e-02
5.397312164546695656e-02
6.208805562976286302e-02
3.876321356344728658e-02
3.121892037461975605e-02
-2.039498082860960460e-02
-1.615298091821211479e-02
5.063932598347527236e-02
5.834290654461637970e-02
7.475420581002131803e-02
8.738392934741565088e-02
1.214089731068709044e-01
1.392174869999925069e-01
1.437530021033724681e-01
1.262522831435721193e-01
1.110689698170785888e-01
1.454769282699101829e-01
1.781351418772524620e-01
2.172777474865688618e-01
2.404882205403322259e-01
2.824752057356841872e-01
2.316286484376519073e-01
1.356326546000339861e-01
1.626182821198420003e-01
2.355956647964532469e-01
2.317612073092106539e-01
2.341807222196785332e-01
1.716578035950453440e-01
1.817113030047487476e-01
2.136631396829645757e-01
1.555000177770868852e-01
1.332280338239628659e-01
1.197757648545354908e-01
1.244461015310657920e-01
1.285720727359869198e-01
1.429737565473882255e-01
1.223110903347195411e-01
1.626146399224658590e-01
1.242579518127610166e-01
1.298238683252575520e-01
1.118122610873686640e-01
1.198953094748162057e-01
1.217176078447812088e-01
9.837502638202474947e-02
6.075790911456513399e-02
8.200028308303757008e-02
8.259898424313603937e-02
6.397909453643411959e-02
5.725873483434647249e-02
7.505919027953733558e-02
5.842635057103084256e-02
6.920061776890007454e-02
8.836280559216661001e-02
7.009303222863218219e-02
6.061563557565720350e-02
6.483874475722317676e-02
7.491056955550057239e-02
9.061602568387962242e-02
1.014334167583458707e-01
1.551313484683291277e-01
1.488089642298922044e-01
1.389784045987667027e-01
1.173231737960451770e-01
8.294322126740583112e-02
9.629854344233851338e-02
1.214698350273221567e-01
1.098953517832950977e-01
1.114448668695119937e-01
1.407447301482771806e-01
1.382132666296155554e-01
7.383577448745048954e-02
1.104616501464678602e-01
5.990893232583571759e-02
9.491985000139402384e-02
1.357845279148849338e-01
1.621591298860725061e-01
1.677041319125707475e-01
1.778305377822977928e-01
1.952130136028400464e-01
9.849978639223358479e-02
5.646794959450725931e-02
9.414426110448875784e-02
8.646330341465385816e-02
1.038728442705769833e-01
7.166069789693726988e-02
6.669654374487754556e-02
9.119130083946450083e-02
1.179267000254874687e-01
7.999437167028471130e-02
6.622355915474203991e-02
8.855382039555420581e-02
7.519998048068310403e-02
7.365277800400557573e-02
7.484808922154637112e-02
5.926782877810364558e-02
6.891829996625145616e-03
6.310842382155434915e-02
8.071984709252645607e-02
9.463371078106112833e-02
1.087279444727226319e-01
7.777664880117554635e-02
8.778371512707400237e-02
6.271622133482343542e-02
5.064858571185733294e-02
1.402944494553716101e-02
1.795993599460504048e-02
-8.125825587568094588e-03
6.462554975947168434e-02
7.756037448964632486e-02
6.004469330915070124e-02
3.312720240828062601e-02
4.821576100173176338e-02
8.369753500789914313e-02
8.826718046536016771e-02
6.860349037516003112e-02
4.795141959515725194e-02
1.390974468996174218e-02
3.532780589947423500e-02
5.987560522965554993e-02
1.142876174441202902e-01
1.031071587156197067e-01
1.103357822683172090e-01
1.412120619833963087e-01
1.669156502326601954e-01
1.652779382831941479e-01
1.500758537390592395e-01
1.407433679297227791e-01
1.238989143852873565e-01
8.746317678277720775e-02
9.852187835104816993e-02
1.008832366719731866e-01
1.199410228899222552e-01
9.949584169300990100e-02
6.151081284424211870e-02
9.365026741837367830e-03
5.950073207854449098e-03
1.607832089799461975e-02
-3.501005955476241271e-03
-2.031374723960439541e-02
-1.186733078720972334e-02
9.778684223972496092e-02
2.313135723941270316e-01
3.870835136439268465e-01
5.865655851628821527e-01
6.526008969346657196e-01
6.934781314332948421e-01
5.795997029817867574e-01
4.021067813149190040e-01
2.253417064433038408e-01
1.326351249648928254e-01
9.805841642388460344e-02
9.078613025557080718e-02
8.019437293226330810e-02
1.004182721025041192e-01
9.953424216752247700e-02
8.589958521628879295e-02
4.483382590296979692e-02
3.737921729662602860e-02
1.498337223454826450e-03
1.710511854716525310e-02
1.067135571873530364e-01
1.808005319011838363e-01
1.885603724606978449e-01
1.693852902809788730e-01
1.563863568405630400e-01
1.623160491690931462e-01
1.914054887697909102e-01
2.000315119875158421e-01
1.987225483131071502e-01
1.970081372675965004e-01
1.867042272034397932e-01
2.253639076656420714e-01
2.505290269102967704e-01
3.525173629920848595e-01
3.918269655725805101e-01
4.095080005922937527e-01
3.577394561757142322e-01
3.090086041646191717e-01
3.045943055777656228e-01
3.496633038594259002e-01
3.168631619332759053e-01
3.150132532233878568e-01
2.985132526505429040e-01
2.865854579016535175e-01
2.831607246274905343e-01
2.699762248467666437e-01
2.537653574048529537e-01
3.091246869168510214e-01
2.532710807352826499e-01
2.036236040325630214e-01
1.736032296893900428e-01
1.955725327827252669e-01
1.439367817995013399e-01
9.883925285073046074e-02
6.523695616888514071e-02
4.078117621062675446e-02
4.023471344062534705e-02
5.151530983491399429e-02
4.541421009112766444e-02
8.876594800090591153e-02
8.250379621518227902e-02
4.491042750683335583e-02
5.975962011670366003e-02
5.991598829330761072e-02
7.800025210354841199e-02
5.880897717981226763e-02
6.192866449519364436e-02
4.400790073831584853e-02
1.227970851558485288e-03
8.972013630881986446e-04
1.371585102241695830e-03
1.202115950265104233e-02
6.048792108042141957e-02
4.388362083853301204e-02
1.056721763751239385e-02
3.607717733954116102e-03
-3.016426790681502046e-03
2.460179508704718118e-02
2.581359342936413032e-02
6.553407809765975089e-02
9.101267839955623495e-02
9.533712616732470391e-02
1.074172134246293431e-01
7.946525684836100445e-02
7.166974089034885975e-02
8.848624322002769660e-02
2.951364624919280977e-02
-5.604712094068241279e-02
-4.229328416125198442e-02
-3.694743706562717694e-02
-8.681368162206708206e-03
-5.092950573403644959e-02
-5.435637640904544821e-03
5.344551109738206879e-02
1.563199189719434792e-02
2.041555779094570561e-02
-1.716597417474353959e-03
-3.593530718034277510e-02
-2.574584393536448468e-02
-1.666869193975072105e-02
-2.284984695818392114e-02
-2.915515053002364770e-02
-1.203873016433452958e-03
4.938521853136527973e-03
-3.494919576397748778e-02
-2.048114224336896466e-02
-2.996990421911350372e-02
-4.290473168661745190e-02
-3.721495337635730150e-03
-2.448698115479767262e-02
7.465554603773898179e-03
-4.001205353043102431e-03
-2.027791510063731151e-02
-2.406608176789156589e-02
-1.186060930152070536e-02
6.241945554972764404e-02
1.046760402795279266e-01
1.059995037688152841e-01
4.346102674275512112e-02
2.775329673951582726e-02
4.043955714812390301e-02
7.856297465595095397e-02
7.743134457682657179e-02
7.748255346352991846e-02
6.785101934551006353e-02
2.708871688456163107e-02
3.467499745381075194e-02
4.628245858987614647e-02
-1.324046106872063533e-02
-8.048777373843407634e-03
1.465719308144635205e-02
2.352257966941844955e-02
1.778252738058450078e-02
1.679274775536532954e-02
-1.063401476193499839e-02
-8.214831107683645550e-04
6.152444286088240566e-02
5.875448661492356506e-02
4.900208935885815714e-02
3.234654267040934505e-02
3.850750430052291007e-02
1.486102077678957967e-02
1.431546307855253997e-02
6.390496478054873142e-02
1.064593057888029992e-01
1.283152831258402571e-01
1.423573428578625011e-01
9.124381190370448036e-02
9.420820813629937618e-02
8.635464502526908614e-02
3.239717109520812849e-02
1.497070175862405886e-02
6.438216489828396671e-02
1.802688556082544802e-01
2.401006292326459957e-01
3.235315548018969922e-01
4.664418185942337813e-01
5.629392739379397437e-01
6.324750837605677134e-01
5.689964802923433984e-01
4.406854678516182178e-01
3.485132026339893274e-01
2.089678836870050849e-01
9.279526016769400198e-02
4.357902323935292088e-02
-3.089169281567851616e-02
1.488333849811889278e-02
7.078760856613824926e-02
6.525260190566979646e-02
1.957612496076400338e-02
-2.328133070203797228e-04
5.836879599384399431e-02
8.133680727700723367e-02
4.247658209941956864e-02
6.237520597054872773e-02
1.162569056286784364e-01
8.685568832051931976e-02
1.198605262416986561e-01
9.387016028512093491e-02
9.670450216493545192e-02
1.215199796175071151e-01
1.119116334281146652e-01
9.952854089007176497e-02
1.039124548593615971e-01
1.614842235997934194e-01
1.795711933071233724e-01
1.720979081737347427e-01
2.257219971951309190e-01
2.385288753784035598e-01
2.542173019480803431e-01
1.784554703623119354e-01
1.354543052016918825e-01
2.061198625499935100e-01
2.674031731973802728e-01
3.074206865828352786e-01
3.127191625669399344e-01
3.061765929477000547e-01
3.289934837463553419e-01
2.688242886119343034e-01
2.551726960846770753e-01
2.394473107511632393e-01
1.820550895789983248e-01
2.004942571042070409e-01
2.022696200549570222e-01
1.842876777127940291e-01
1.273945975053896729e-01
1.133554839851049073e-01
7.202181534393030382e-02
6.402879786233496573e-02
1.248851365991498347e-01
1.020265883234820203e-01
1.313941328876187531e-01
1.245577245970421604e-01
1.236222927771111757e-01
9.078969708335746236e-02
4.731022240773657267e-02
5.545369097937812713e-02
7.405001938857906640e-02
4.617886888960882202e-02
7.354123289509176264e-02
4.457399930607311433e-02
2.686640055577928926e-02
3.829337832471813030e-02
6.649162138266281885e-02
8.428031959067677770e-02
1.018886967446122616e-01
1.161155357044683228e-01
1.112852542934930494e-01
1.019364074912385426e-01
1.325210331481345982e-01
1.448828422593003151e-01
1.197519395371180601e-01
1.347676890360275381e-01
1.355091162593153598e-01
9.091429316902072122e-02
9.546400372585564509e-02
1.296485981322775538e-01
1.092196849971087125e-01
9.645001104122699620e-02
5.242966902631359533e-02
3.805334753928069774e-02
7.887831428977266912e-02
7.666254451811263526e-02
6.968062285857676286e-02
1.394793655923921849e-01
1.587457197405035547e-01
1.328012620872570382e-01
9.654864412953620412e-02
6.006412462490461068e-02
5.875655027500888833e-02
9.562716341249621887e-02
9.478231400158658448e-02
7.182743704786789807e-02
5.283708503350628000e-02
8.951863459768238940e-02
7.492800804427052208e-02
5.146037566612910591e-02
6.953734323584710719e-02
1.283249787840659850e-01
8.501549481625833571e-02
8.875460586447560252e-02
1.272382998662855702e-01
9.566611902952204538e-02
3.158565806411120502e-02
3.021177460395298164e-02
1.205805019292872093e-01
1.235625334126790875e-01
8.931139517724599741e-02
8.948092512366970230e-02
1.066950453101332408e-01
1.221798354114670970e-01
1.350447360251270656e-01
1.493102202303183967e-01
1.081848184182452599e-01
1.082721060030344684e-01
4.904735245306758584e-02
8.736288540495373844e-02
6.468812628685269295e-02
5.040516275407955216e-02
2.658809444995512833e-02
1.935393450731328832e-02
8.812858255770737725e-02
1.187378594351205241e-01
7.219685508498095705e-02
7.258059585945385306e-02
8.323193147686366866e-02
1.234016449038469604e-01
1.034164316837800218e-01
3.446806446423334586e-02
2.510788679538815404e-02
7.068786260000577137e-02
8.942877699165213690e-02
1.140889519188429957e-01
1.174425383651019061e-01
1.253245206753321461e-01
9.275648224228558170e-02
6.880535085066323553e-02
1.077002291940799272e-01
9.193179630377364131e-02
7.181531364787779870e-02
5.982921484685074787e-02
4.934839514766781177e-03
-2.063089606307899615e-02
8.532099340272311649e-04
3.079345669006702813e-02
1.488161222130231220e-02
2.184067172975132434e-02
1.570598478918748542e-02
8.829227314442434152e-03
4.367443600933071379e-02
4.470838300557365697e-02
6.885514611871433599e-02
1.570869550705074613e-01
2.470406282934598241e-01
3.917904769129877396e-01
5.560889665966367579e-01
6.382054759199907723e-01
5.860363687260823351e-01
4.617777593094197774e-01
3.502147583419272792e-01
2.240398161512777708e-01
1.322601712807029983e-01
9.186968434634905367e-02
5.288707739020942489e-02
2.573616804850574133e-02
7.127122269987429259e-02
7.832009776430835790e-02
3.998137608072993565e-02
3.318499133075974994e-02
1.923175981018271363e-02
2.454329177317438049e-02
-9.820562857024220382e-03
-2.261130958233896482e-02
-5.415566367128907266e-03
4.183201480768311553e-03
2.454430357634164450e-02
6.165313511388103435e-02
6.514412624602437807e-02
5.724415732425851278e-02
4.810453508314249671e-02
2.475344217568921368e-02
1.033227739477912688e-02
2.726157033361098492e-02
5.310150664449814206e-03
5.156900405165079637e-02
1.158517586851066788e-01
1.058123184921352933e-01
1.272688031720741741e-01
1.217057632504494752e-01
1.293247794923874650e-01
1.726599863582467531e-01
1.489533373858915877e-01
1.240604610567850596e-01
1.392688324667160915e-01
1.215925496680493600e-01
1.519537614795899438e-01
2.096379960375457929e-01
1.726115172814495502e-01
9.316139100069731338e-02
1.017188941698412424e-01
1.378556928265650405e-01
1.432096835874626384e-01
1.368279016966513773e-01
1.310506780357619250e-01
9.419014018228100138e-02
6.374030250791264118e-02
3.860096517166609897e-02
8.920983303177090762e-02
1.384665038119070601e-01
1.337910950001146293e-01
1.316094470872961053e-01
8.733630093087910162e-02
7.503561562200121438e-02
9.721911454232298744e-02
8.384883617931050692e-02
2.085984537033211753e-02
9.171085293798737770e-03
6.865953213717711223e-03
-2.115818592695474509e-03
3.017633857132474839e-03
1.174622318727703424e-02
-6.206337280765271414e-03
4.798507588386127787e-02
3.260005629640856661e-02
1.868835901390972221e-02
6.135954248657253529e-03
-2.527158113140748341e-03
-4.976609422070871203e-03
-3.403940700315525453e-02
-2.977924691213357927e-02
2.731781395562550563e-03
-2.441920592767564402e-03
-2.890970190089235670e-03
-3.016805050161259355e-02
-2.034677741253782673e-02
-7.375730869242327903e-03
3.156277387161830067e-02
5.635456807665895074e-02
2.201572824387632715e-02
4.193432891535300855e-03
-2.297560068670464334e-02
9.817589525131412143e-03
-1.434813735990868311e-02
-4.989677304668919955e-03
9.932234332083025863e-03
-4.031529609374022438e-03
3.721863478057321761e-04
3.853872785311204113e-02
-1.295425164721329681e-03
1.143061938439431102e-02
2.729583405273403041e-02
2.641789681150518224e-02
3.064601848819394764e-02
3.191678458706864729e-02
5.846668759022634332e-02
7.753925684084117531e-02
7.206306447874377685e-02
5.837936977842487357e-02
6.079117800784126363e-02
5.923763181637585473e-02
4.391093243357022807e-02
3.566121219183038260e-03
-3.126554481819415060e-02
1.856687390539084673e-02
4.697344708804815361e-02
9.883408422809986105e-02
1.536049506647501617e-01
1.096341735211174562e-01
1.157655905535572433e-01
1.080269643203644880e-01
1.435272741664130325e-01
1.395832546593473444e-01
1.533506081496422979e-01
1.192395095336350047e-01
1.197955583752605135e-01
8.265841886040348196e-02
8.845909629927070639e-02
1.581233795943086107e-01
1.551239908815484903e-01
1.540262948586925418e-01
1.857455488981113179e-01
1.517271871528613758e-01
1.011514068923591025e-01
8.329316186374277620e-02
7.683654006288356819e-02
1.171875002542875910e-01
9.933901644098575012e-02
1.143828421663738992e-01
1.072104381832315323e-01
6.976750872034859219e-02
5.874267521855347507e-02
4.985475723764697109e-03
4.406208450948585070e-02
1.113424675252968205e-01
5.723007953399687764e-02
5.685454477745632146e-02
4.273187953157938507e-02
3.014159189863221261e-02
3.367631587596008058e-02
5.325246136298326938e-02
4.089887432038524784e-02
9.611962004997440245e-02
1.242736283687475851e-01
9.466859848661046684e-02
4.636884464306532949e-02
5.854742448396102472e-02
3.424738071945283846e-02
1.511628006250901463e-02
6.426684631615710297e-02
7.899570446564889437e-02
7.649222377473643975e-02
6.770696199563719375e-02
4.074917218518765011e-02
-7.281448637211199865e-03
5.118727052269525513e-02
1.404994197434834280e-01
2.337521145990662519e-01
3.701404277575502944e-01
4.891633899887199433e-01
5.976198927573329600e-01
6.185950588561172081e-01
5.793876223367314671e-01
4.571910936111024948e-01
2.776824380412249993e-01
1.572341769483026896e-01
5.014824972454346580e-02
7.329317775763379006e-03
2.613961343042793539e-03
-2.954915416220314089e-02
-4.746401153027247910e-02
-1.045394066970550123e-02
4.060488157355385264e-02
5.672121016533365756e-02
3.227721843404963986e-02
1.004074703427259019e-01
5.493201620352426706e-02
-9.990234679583348543e-03
3.255474005487755951e-02
6.185795073474073535e-02
9.046476915077067416e-02
1.090179206775822029e-01
7.331931778517929155e-02
4.490778450112423159e-02
2.426875709745079934e-02
2.960231025241727432e-02
4.881556697740532802e-02
8.184460342181092141e-02
7.583054628807725517e-02
5.947002233160487983e-02
1.108237171200129045e-01
9.681894289018165567e-02
9.439350430340677500e-02
1.057302449350819296e-01
8.932664170343970755e-02
1.001539250051554780e-01
1.368241785517491371e-01
2.106016373361125071e-01
2.062942167216350320e-01
1.343146626090629958e-01
1.247942789458614532e-01
1.543056349085519807e-01
1.522109465724498789e-01
1.078050063357444965e-01
1.502524562798939756e-01
1.854153389306109623e-01
2.039333610652752926e-01
1.941362654623905726e-01
1.480829609090997812e-01
1.164224829509518944e-01
9.773625001457185435e-02
5.268952737308350842e-02
6.353840375179110878e-02
1.265754157661009571e-01
1.237231343948587969e-01
5.301327427199088727e-02
5.153743148287107112e-03
6.664301786445531173e-03
1.169245400294939563e-02
1.841451056366438799e-02
3.459000433138515601e-02
3.767924066816020351e-02
5.891608791649270704e-02
3.385797467565907631e-02
3.164765370136254918e-02
2.768370513202955338e-02
5.706227707424979534e-02
3.846037521615200405e-02
6.202293028720022583e-02
5.132213247484852803e-02
2.548839910673476178e-02
2.952018089346720997e-02
-1.602715805522159781e-02
-1.663670245965826605e-02
-1.290318134196789812e-02
-3.067411200067056420e-02
-2.112363628721934672e-02
-4.989847572883163163e-02
-6.118320478151164504e-02
-8.990180687127632964e-03
5.726527704273648434e-03
2.924389164389357143e-02
3.802330016983315047e-02
5.489247879032774224e-02
8.833278460520294084e-02
1.245180761025770216e-01
1.258957848980475358e-01
1.042830219669356739e-01
8.282214814581098650e-02
5.008730559810905397e-02
8.230354302108315590e-02
1.448594118827664090e-01
1.527944130046354210e-01
1.077945867955616838e-01
1.187945335767169319e-01
7.640388706863576740e-02
2.272151514353638185e-02
5.026816195597278575e-02
2.895409451052452163e-02
7.445726876232452995e-02
8.873084296755281986e-02
9.275474448599449473e-02
9.404437166679061044e-02
2.383282647846086261e-02
1.482493889012454283e-02
2.039733231186731388e-03
-6.592259804886292651e-03
6.232156907026732695e-02
7.216713734782684297e-02
8.233817642838088535e-02
8.594414996001836782e-02
9.420024446769578730e-02
7.854093729450811745e-02
9.512379986344512983e-02
1.173625913335343551e-01
1.010873728817980044e-01
7.492731244196024210e-02
4.641503311324975817e-02
7.247849794166306980e-02
5.803151273262974197e-02
9.810546421427585040e-02
9.149832439454923250e-02
9.535854979066155090e-02
1.574398675596617447e-01
1.042277833493198691e-01
6.420081188190307486e-02
1.127690715294959595e-01
2.595899374873268384e-01
4.058302098017294579e-01
4.457640238978080038e-01
3.894121440824425129e-01
2.822796260408524383e-01
1.823991601440347887e-01
1.514127792115028959e-01
1.446519524304372695e-01
1.759269531165584266e-01
2.024605215307886674e-01
1.678596848446790024e-01
1.511452806039662589e-01
1.215594303306443136e-01
1.316673145961771152e-01
1.581280782630871129e-01
1.905900331365910638e-01
1.720453216681073205e-01
2.058732363670685017e-01
2.268455200503705915e-01
1.604026479696538665e-01
1.282586384991318273e-01
1.431792667034286759e-01
1.809820199330855195e-01
2.188841010265316078e-01
2.236096738311008081e-01
1.564796080596325689e-01
1.365461961521781120e-01
1.704549723435110353e-01
1.393670513504990383e-01
1.397437002920574600e-01
1.147102937054977345e-01
1.034045805696205689e-01
1.040821579456958079e-01
7.497870451368957023e-02
4.957253725206720030e-02
3.805032387515489695e-02
5.816300245643028777e-02
6.677295393764769160e-02
6.521028616412702372e-02
5.668096358393417272e-02
3.234408311039332906e-02
3.810261499699477139e-02
7.854394026989655608e-02
8.602484164979189163e-02
1.188875595992243406e-01
1.479961865809170107e-01
1.380027860374267723e-01
1.440848322522595981e-01
1.845801795764707987e-01
1.521091012487569283e-01
9.602966636174183057e-02
7.802185697722383018e-02
8.096102132292658238e-02
8.984250285535524960e-02
9.866645783527490388e-02
1.121017288567445480e-01
8.914607161585054451e-02
9.707630658131535806e-02
1.374510297291197669e-01
7.700579028617748900e-02
8.685592787143055216e-02
7.012643583758246257e-02
1.589628587859491168e-02
6.831014995963383130e-02
9.919840928485521014e-02
8.323269173282021871e-02
4.121027077767609736e-02
4.522844850260222815e-02
7.401779606070370277e-02
7.289714586390159956e-02
3.745033109521649084e-02
5.419844877254745286e-02
8.884391610026370900e-02
9.630474813769873688e-02
2.621840469311444155e-02
-1.157329957439559576e-02
1.343365691888334310e-02
7.783532111705962486e-02
1.102965989761274385e-01
1.035295288728702578e-01
1.352633397678852101e-01
1.552581299157935468e-01
1.451433174829837025e-01
1.148958133049771124e-01
6.882106475685866032e-02
2.259619875466620242e-02
4.911532148451855373e-02
1.014716463233987925e-01
1.141589024776109018e-01
5.448463631156222342e-02
4.115037958759697190e-02
1.089603614581372282e-01
1.180723653747549062e-01
1.334014055233645468e-01
1.335805907302057560e-01
1.448325322530006898e-01
1.511299249667515665e-01
1.317322945005303669e-01
9.435419806042434632e-02
1.082949016779759244e-01
1.238851558152989363e-01
1.195363754581050264e-01
1.289002400264994408e-01
1.185699845738604763e-01
1.113657867163955068e-01
1.218196231355184733e-01
1.240454067976955316e-01
1.199904402738013465e-01
1.432208059242795484e-01
1.265278935565472274e-01
7.988738353915073032e-02
8.382975929040029084e-02
9.591925344391317998e-02
9.857575288625365639e-02
8.742957337524873140e-02
6.551305267453928771e-02
3.405890289482706862e-02
6.269349709412525007e-02
7.237412284698499509e-02
1.171874127294858514e-01
1.351056352494237056e-01
1.214903298715734464e-01
1.072423434818742249e-01
6.552081597844242045e-02
7.388706369598987966e-02
8.452365659460545078e-02
8.590733569602400366e-02
1.739625646831623462e-01
1.902043487889552853e-01
1.534661391995346957e-01
2.039954986404974857e-01
1.840199196415904792e-01
1.583105585465514886e-01
1.697216597169076968e-01
1.217494838466997992e-01
1.130513140926537041e-01
1.132221005046542273e-01
1.159027829652116010e-01
1.013777293440356886e-01
1.301503269281182318e-01
1.234513385997717955e-01
7.558443764035704948e-02
1.067524847772882424e-01
7.976573145096621520e-02
7.313381361584991858e-02
3.628416947002718884e-02
9.141923451330843942e-02
1.415088089585833098e-01
2.257056286809814294e-01
3.557070259108138788e-01
5.001357494015862271e-01
6.694413226792721439e-01
7.860475547007221842e-01
8.586698617744470408e-01
8.767274026328166769e-01
8.058119298673626085e-01
7.514543025107895957e-01
6.361279442618279489e-01
4.776676621780080456e-01
3.664886625612584492e-01
2.581253653809461035e-01
1.692382421520929048e-01
8.855633418301622761e-02
9.078237732260710513e-02
1.265491834974610263e-01
1.153799277850204030e-01
1.293924781364277077e-01
9.745751391307108658e-02
1.185711387450950338e-01
1.682513696547151272e-01
1.359843129170715814e-01
9.111352192354973956e-02
1.293873076585910775e-01
1.112538284544204448e-01
1.449985289856605131e-01
1.274437792052799112e-01
1.364637280943912789e-01
1.308451876392762725e-01
1.115499458518918741e-01
1.230203803106050126e-01
1.422513125034377546e-01
1.986252708349116047e-01
1.849216022533482495e-01
1.623973525079774882e-01
1.819351620898267130e-01
1.717165396822994683e-01
1.396081560137514554e-01
1.915184361953525538e-01
2.214845149595903451e-01
2.232337210276376938e-01
2.390315151578252251e-01
2.333496960877264603e-01
2.503227906795505442e-01
3.114336679611922620e-01
3.338675776373593029e-01
2.987068879890441564e-01
3.108453199458527383e-01
3.050789047325759840e-01
2.799307223346570450e-01
3.474227464730561543e-01
3.900678300378512819e-01
3.904055439303739106e-01
3.892303051975142814e-01
3.634748526502915023e-01
3.590302223742189436e-01
3.742878337412630096e-01
4.010035591978744485e-01
3.940703386632251615e-01
4.001454973583357666e-01
4.322341752932951087e-01
4.435616628180492071e-01
4.179499550069736280e-01
3.763443813180138431e-01
3.582071398741194512e-01
3.605565682371733582e-01
2.991518615441061124e-01
2.909497133228663435e-01
3.128295340993172968e-01
3.114400262808766917e-01
2.868915155561841956e-01
2.893227242601730254e-01
2.465646062752487322e-01
2.292482144385350473e-01
2.599769836113360877e-01
1.820351690795730115e-01
1.378022565913395725e-01
2.146902191195538268e-01
2.469213824100884858e-01
2.325028327541664996e-01
2.346320172371861024e-01
2.122832745980424152e-01
2.014949123088614347e-01
2.288151107232866965e-01
2.071557999867719435e-01
2.130730717286837828e-01
2.463353628797021189e-01
2.090939390939699494e-01
1.946300916457012198e-01
2.074290305068087203e-01
2.310099620903368345e-01
2.444574471183838527e-01
2.190307548006424909e-01
2.088512873422929961e-01
2.106348944307238624e-01
2.007980260131562167e-01
1.755604447477802643e-01
2.004059199307175188e-01
2.477143999790137885e-01
2.558352146449813791e-01
2.876363131871709777e-01
2.676221478787470520e-01
2.938331907831360224e-01
2.730073382287250272e-01
2.222748065160055908e-01
1.781670245447372902e-01
1.782930357842111291e-01
2.070768474403303083e-01
2.312292691296851943e-01
2.346314996511199291e-01
2.082763951433421468e-01
1.728516666389360301e-01
1.632328723817695615e-01
1.859596521842284966e-01
2.206208733978114178e-01
2.292262567529579909e-01
2.246540703751903900e-01
1.875499444510940750e-01
1.993428362788086106e-01
2.060442560130188450e-01
1.917977456700539485e-01
2.352264558186711318e-01
2.328139755470112482e-01
2.342992036059770855e-01
2.192670908921500184e-01
1.947064287532989657e-01
2.148743442469895348e-01
2.514880222166808732e-01
2.550095588666590474e-01
2.338746796935636252e-01
1.944502982063917584e-01
1.934842650034067080e-01
2.103547996285025368e-01
2.134263772880094501e-01
2.068494038511731192e-01
2.266757073742085848e-01
2.528565916729010876e-01
2.488110566233167065e-01
2.655583084669398408e-01
1.912244200064971700e-01
1.291806708049046404e-01
1.308114191936611270e-01
1.425783887990844656e-01
2.189578604620323055e-01
2.177206828785780979e-01
1.491139115887780975e-01
1.607155034714839725e-01
1.650580366477016891e-01
1.593610397484176711e-01
1.104094781059281050e-01
8.623477643839985718e-02
8.326021358257681970e-02
9.049720119379356387e-02
1.248713644052573957e-01
1.515106727821702859e-01
1.532596053556416205e-01
1.581344240338481144e-01
1.894515786948650637e-01
1.480280605386324333e-01
1.117720890698666036e-01
1.342803646906843007e-01
1.393762560579694387e-01
1.427015570347886786e-01
1.617858960985699146e-01
1.466983921214191633e-01
1.388922905422121379e-01
1.213741210795698938e-01
1.409574987754863562e-01
1.475247388890337241e-01
1.386980324381818785e-01
1.679630486151126867e-01
1.878040771144378618e-01
1.998742245992392030e-01
1.680760905435810526e-01
1.848228565682814017e-01
1.845735881454829141e-01
1.468559574364954046e-01
1.218770739720130142e-01
1.218032202039709966e-01
1.190104457795535392e-01
1.294707544103304575e-01
1.864738358975757127e-01
2.222801618663217127e-01
3.448884219736786938e-01
5.439999136065497565e-01
7.062860874551293300e-01
7.545359243116050996e-01
7.070256613833971748e-01
6.570285352218687702e-01
5.003757682270895124e-01
3.081002085329014872e-01
1.977582666451853655e-01
1.434184011157595973e-01
1.211068064860261473e-01
1.305882482758502494e-01
1.493637705017448469e-01
1.765268161915083400e-01
1.623789603333586351e-01
1.285508813145566087e-01
9.353656749514535629e-02
1.496382617950454408e-01
2.002477340992410149e-01
2.005933149809966676e-01
1.846067009818141424e-01
1.940638995020557145e-01
2.014730030091624047e-01
1.923961409288830748e-01
1.983542626202347281e-01
2.055974010233385385e-01
1.731497268712195725e-01
2.022613731011784211e-01
2.037487705286422646e-01
1.934276136961434189e-01
2.335964599574286149e-01
3.276275347743832222e-01
3.264694343588264158e-01
2.578266981823641446e-01
2.727761142765675606e-01
2.560228645968942174e-01
2.826116724826603921e-01
2.956538893451769456e-01
3.080333465941758053e-01
3.213663088765448816e-01
2.680908309515790400e-01
2.284432554440548602e-01
2.201962446818999108e-01
2.286982642512963293e-01
2.590847385554072013e-01
2.265636087144482502e-01
2.658659442835225040e-01
2.352862408271470529e-01
1.815854152284968326e-01
1.565963853354536695e-01
1.432019044287796972e-01
1.410248101476093974e-01
1.380840354156472605e-01
1.232178350296433689e-01
8.231376091248798765e-02
1.021166988434897976e-01
1.457338645827190304e-01
1.384662613960602195e-01
1.518624598996999309e-01
1.310651816784711154e-01
1.165198330232012081e-01
1.464828675986319384e-01
1.457099194368841055e-01
1.398781810627239275e-01
1.277611189295258520e-01
1.270890681617024009e-01
1.375080930098482590e-01
1.486510263187011405e-01
1.452482411337847890e-01
1.702082971362956776e-01
2.099788766517856342e-01
2.442418839432797806e-01
2.589936416810698638e-01
2.315908413572851376e-01
2.270003686179318803e-01
2.006846127240943800e-01
1.766567045598664565e-01
1.936116283113451242e-01
1.913650061397541013e-01
1.805993085430945833e-01
1.602521542211987338e-01
1.893236101806021476e-01
2.335348348679938402e-01
2.341035654026668855e-01
2.092205781833390565e-01
2.221085544209432661e-01
2.420679490155006053e-01
2.449791472869128905e-01
2.435446123313111388e-01
1.795049404759718747e-01
1.870413123023896285e-01
1.821914395624331384e-01
1.874841856948202268e-01
2.214947540701537043e-01
2.122357108174898754e-01
2.028816514023584761e-01
2.119316373348243410e-01
1.778209359549126622e-01
1.459368610603397065e-01
1.075007362955864576e-01
8.596443906190764928e-02
6.436456245292201950e-02
8.238347498174122818e-02
1.178886173392637016e-01
1.557992741834927364e-01
1.843404946412847689e-01
2.182203547120291076e-01
2.460741103967234722e-01
2.492123231046975695e-01
1.750129521948627087e-01
1.703392057175995566e-01
2.225259502333954142e-01
2.505442933212301826e-01
2.097693169929171764e-01
2.019782445546056959e-01
2.289851928342380993e-01
1.751430238383035465e-01
1.411094845038659840e-01
1.830545865628584734e-01
1.682256969553716786e-01
1.328976948162430283e-01
1.141237190688721148e-01
8.232165059561587228e-02
4.584290591394200864e-02
5.377271039500167160e-02
8.367120061107599649e-02
1.195245304854999635e-01
1.823332386811110095e-01
1.735507589187819666e-01
1.331530763957927688e-01
1.146722083448416252e-01
1.626183826195169435e-01
2.089636500516466322e-01
2.236839762932240627e-01
2.426020358124482690e-01
2.501028726255942747e-01
2.415588318803248424e-01
2.414678842894522615e-01
2.424409340139352109e-01
2.485605182878033448e-01
2.313473673512360107e-01
1.823974643056735789e-01
1.831415014075236103e-01
1.717308838481052258e-01
1.482373250235139162e-01
1.158528531800706585e-01
1.008006350751476238e-01
1.871487311852376156e-01
2.370215098308197377e-01
2.381724298486551095e-01
3.022429349753811278e-01
5.010014282071428848e-01
6.629708172072970029e-01
7.015158850415457170e-01
6.951129498655956862e-01
5.923484762573600904e-01
4.315055917047525558e-01
2.699001831649084360e-01
1.890634169706272294e-01
1.287681146620515693e-01
1.209217372859767714e-01
1.085732869713220416e-01
1.653159781459840882e-01
1.799784690086196071e-01
1.742807398655373263e-01
1.836870703054019061e-01
1.507023985918867770e-01
2.066546298877648402e-01
2.986205195879448882e-01
2.876508108326959468e-01
2.706330166338855037e-01
2.357517674407347830e-01
2.497693659768354113e-01
2.717341135942374919e-01
2.772163001075274025e-01
2.347107105951941886e-01
2.310600587029949526e-01
2.308573768512144075e-01
2.404896388943530972e-01
2.572753477621899654e-01
2.510920128595766077e-01
2.815969966473900188e-01
2.983216697502754089e-01
2.828562908180497493e-01
3.153968466893296574e-01
3.335311919932100189e-01
3.777424253853867153e-01
3.630245564682597070e-01
3.696957622810176369e-01
3.368842824216871645e-01
3.310086307386616022e-01
3.162724577900201672e-01
2.821539742266512829e-01
2.778417131928229700e-01
2.939736548756954893e-01
2.730281222318557965e-01
2.795120335006890389e-01
2.833629011620238947e-01
2.295378335657722313e-01
1.909822128359708049e-01
1.665240208531217903e-01
1.557955097431058533e-01
1.443965274774575702e-01
1.667799118114379753e-01
1.722369546887955183e-01
1.322687826209602568e-01
6.862607760480471386e-02
5.925702510426665570e-02
1.181914044021702970e-01
1.426252406495533698e-01
1.359238470275180299e-01
8.869283711275025017e-02
1.066244895921650560e-01
9.946110647995824727e-02
1.008695067069289020e-01
1.107055194106622703e-01
1.021225881503349253e-01
1.208357650500733182e-01
1.224967646909297936e-01
9.862269596424974583e-02
8.188114437127141931e-02
4.805137857251547129e-02
4.331771806266782737e-02
1.102452595907633809e-01
1.510595162145732251e-01
1.681453745923414678e-01
1.857665662154140418e-01
1.531854385681327424e-01
1.612617312915567980e-01
1.884353541745158733e-01
2.309506348099218953e-01
2.114807390060160497e-01
1.882322084709524557e-01
1.671922654637507111e-01
1.279401725463814032e-01
1.219452005630533020e-01
1.289585317847075918e-01
1.322219096924887871e-01
1.144905135812478714e-01
1.314630302201911238e-01
1.531087700384874406e-01
1.850637610898205887e-01
1.885628634656631997e-01
1.560833337173532509e-01
1.369593398934120521e-01
1.572405588866823967e-01
2.036612721864380360e-01
1.770528219620530475e-01
9.954297680899210077e-02
1.024946764891776774e-01
1.176892611876819705e-01
8.158408983774717571e-02
8.872501842473268230e-02
7.299488800260732491e-02
5.778108546079048502e-02
7.022148615277629125e-02
7.660150135623478018e-02
8.715277392446407756e-02
1.092063642128064671e-01
1.226115740973009183e-01
1.225751110788660808e-01
1.644041798237357299e-01
1.733688736616791071e-01
1.746840729438599582e-01
1.737337374903421827e-01
1.701383901305380530e-01
1.334084334316450460e-01
1.148256053073841709e-01
8.877205908751606422e-02
9.887592890645674482e-02
1.266476112616032879e-01
1.262623794647415587e-01
1.127641576455156863e-01
1.282741423710247464e-01
1.326437367118975530e-01
1.237783259314370055e-01
1.160279311818750159e-01
1.576297293648326880e-01
1.563544336302709059e-01
9.363087798610128520e-02
1.194263715820795546e-01
1.505368148700239050e-01
1.715755342630513880e-01
1.550667404332730648e-01
1.588504633075285555e-01
2.192343425067188878e-01
2.033067280443183744e-01
1.781049651045679139e-01
1.929233975790877464e-01
2.022617780711137014e-01
2.165761832033670509e-01
1.614446131704144194e-01
1.287557798416032184e-01
1.247948486508539401e-01
9.168020396121658033e-02
9.021885335755916446e-02
8.545327718266365613e-02
6.703180463471533623e-02
7.714485575263184403e-02
6.209274937829732666e-02
8.300417832501770510e-02
1.147066604956989005e-01
1.258116270645200374e-01
2.321578358143391307e-01
3.980322901873747377e-01
5.534251571794737146e-01
6.538841301457680721e-01
6.647185825444538176e-01
6.251897742178069706e-01
5.186835895163771637e-01
3.957764286098533479e-01
2.681085274586465506e-01
2.147455856519717710e-01
1.944573450066587883e-01
1.979100196551602520e-01
1.887649122904370702e-01
1.848455956396952704e-01
1.766701734879784491e-01
2.035299581245271217e-01
1.990856240720602632e-01
1.803567066351597914e-01
1.693240322874841053e-01
2.114652786996449874e-01
2.300372533546833353e-01
2.973938200781799934e-01
3.039000826177609693e-01
2.549999712326844192e-01
2.258559930089829582e-01
2.283424907980298735e-01
2.357539068589138698e-01
2.004681554312370273e-01
1.994221695132522565e-01
2.627997220779772491e-01
2.826678289056678284e-01
2.355281121674188405e-01
2.067356528504401825e-01
2.169124649660463811e-01
2.896891432021398427e-01
3.256649655544340272e-01
2.920326343344287756e-01
2.750669486620588300e-01
2.629976476957184284e-01
2.710141156090558612e-01
2.806909310132098545e-01
2.808956946543909039e-01
3.038316102740373226e-01
3.046921451170770401e-01
2.713443186830102327e-01
2.944074647461777938e-01
3.428530001138905270e-01
3.422187568653323742e-01
3.180020597377689606e-01
3.407460703019410952e-01
3.212081141546623275e-01
3.378603709981482517e-01
2.993831652901149942e-01
2.557488369474732459e-01
2.147759339344050833e-01
1.844426008023329344e-01
2.316072132209247847e-01
2.627576110896927553e-01
2.345878643817144726e-01
2.435523440433843279e-01
2.479189860542713730e-01
2.212664674010979549e-01
1.971733931884965263e-01
2.233601870560969760e-01
2.281439702936133296e-01
2.311750753648215140e-01
2.299896027829738676e-01
2.025637690988271733e-01
1.842418805941214988e-01
2.056347263697367866e-01
2.373359897678515296e-01
2.090502845178797142e-01
2.235987768729977287e-01
2.213957133003906230e-01
1.847968622633714697e-01
1.858713925693704361e-01
2.121584065846221778e-01
2.230615053480268228e-01
2.229477282215148182e-01
2.564323375864078214e-01
2.269339743427720713e-01
2.006383770271953360e-01
2.033102736704435198e-01
1.612112421714537447e-01
1.072588450349827860e-01
1.024875053364057709e-01
1.301825437846624300e-01
1.542272270049186711e-01
1.758087409746724172e-01
1.890186678245342478e-01
1.629414962116764454e-01
1.548838537019867068e-01
1.398017601866492488e-01
1.229103558359985193e-01
9.675897655821592835e-02
1.128542463935660878e-01
1.479578160048461155e-01
1.630555938480729994e-01
1.615324548957166317e-01
1.316042173655516678e-01
1.261758235652742366e-01
9.928878141339579633e-02
8.244088875192182031e-02
1.229195405155019405e-01
1.393911435561291379e-01
1.411817773123593966e-01
1.561562129202866411e-01
1.727209709604604904e-01
1.486643508800236935e-01
1.305687154762394941e-01
8.581692842116611653e-02
1.011661006357209847e-01
8.770601300961569646e-02
1.157402148817150978e-01
1.167450620410320494e-01
8.512932478740639630e-02
8.788373797188304970e-02
1.075821019472800177e-01
1.274275915753214083e-01
1.416804145802239567e-01
1.391027010845876655e-01
1.289400462842524853e-01
1.600440014457816806e-01
1.632952687868121644e-01
1.569223234356573737e-01
1.396054855166105058e-01
1.545392756756840402e-01
1.859313445666440079e-01
1.684880065716613251e-01
1.415093497946643686e-01
1.156557570889458764e-01
1.108608501478602348e-01
1.422030693936292556e-01
1.522612182940559500e-01
1.308221385687406424e-01
1.698144292410528611e-01
2.201538784499426082e-01
1.798799094952959199e-01
1.465637427697106809e-01
1.833831874557126929e-01
2.058505705632546201e-01
2.115702885184986282e-01
2.011852895894593041e-01
1.792035872670475760e-01
1.620533819276731569e-01
1.532072892549736776e-01
1.866273500762452575e-01
2.042074045000271676e-01
1.887287560065843972e-01
1.667749543768652920e-01
1.699878967749701708e-01
1.430060476044570927e-01
