1.495003358949337224e-01
1.432045201307880489e-01
1.566786363345780420e-01
1.640949757029641076e-01
1.697517540248303369e-01
1.486366962374860434e-01
1.409084938381408025e-01
1.420389092795664998e-01
1.809966185418651063e-01
1.719984749297012172e-01
1.665270760383611437e-01
1.902533057938040617e-01
1.662390502177195084e-01
1.418225775300819835e-01
1.576633291546648552e-01
1.160336109342156030e-01
6.146467284452299812e-02
4.667054949971739114e-02
1.228328554504908299e-01
1.314635603520426799e-01
1.469772261579650185e-01
1.270430252763766199e-01
1.146273101212317014e-01
1.651977739030986436e-01
1.685738784563486359e-01
1.702105017215351790e-01
1.658746031560109913e-01
1.722929349917845521e-01
1.677833672732276793e-01
1.405031066583815880e-01
1.227804729245712961e-01
1.640396070511214166e-01
1.814583024872006844e-01
2.155699796559706893e-01
1.725626581831429529e-01
1.860193779643366518e-01
1.611849420939797661e-01
1.327524053567800677e-01
1.556587386553451580e-01
1.607054506878539402e-01
1.824760478005588715e-01
2.024050783206387538e-01
1.907753778396267530e-01
1.650371369513418118e-01
1.690070760851477560e-01
2.048356600085856072e-01
2.568958722150229690e-01
1.979663065675381639e-01
1.636806335956348391e-01
1.581438206213259534e-01
1.588906353781459613e-01
1.628271070242450769e-01
1.528773663352955836e-01
1.182710838123973568e-01
1.279620986104642311e-01
1.712841904491059497e-01
2.018623357716942679e-01
2.085081553274523158e-01
1.775821196872717223e-01
2.371482918908049131e-01
2.636457370859520699e-01
2.660811363874072688e-01
2.661984951311723857e-01
2.384540334034257469e-01
1.766862224072113519e-01
1.374402477894359764e-01
1.677308143235845539e-01
1.729547151178079667e-01
1.807270715843252717e-01
1.551549475572066572e-01
1.422033656524645251e-01
1.302028517571140742e-01
1.729866405097779947e-01
2.657968745776305708e-01
3.477974790604063116e-01
4.624949704077940815e-01
5.661352297478685625e-01
6.865226171293229429e-01
6.323172381695861821e-01
4.715407036123666074e-01
3.285337944597847559e-01
2.480067182931712244e-01
1.562925478262928713e-01
1.178742157558225895e-01
1.174056183374703605e-01
1.522327890586968879e-01
1.553740534146093588e-01
1.626309733216560471e-01
1.655843899712322320e-01
2.133680935787775068e-01
1.831152581217530551e-01
1.737231242874164305e-01
1.523767286140587096e-01
1.036039941035895584e-01
1.276554159623639051e-01
1.616685298986333674e-01
1.613644493835796334e-01
1.702262308171483274e-01
1.462945841119172030e-01
1.680443541908744620e-01
1.394235730280178887e-01
1.409319290284924975e-01
1.706625201569492434e-01
1.587579370703125492e-01
1.638757714614353378e-01
2.126836673576220360e-01
2.582751163927907156e-01
2.944982534699099319e-01
3.086001637316888035e-01
3.056039639350807136e-01
3.424911392799662724e-01
3.573715095243139572e-01
3.597215522761616491e-01
3.272994066610369068e-01
2.870250730318458787e-01
2.881185749518582195e-01
3.154514760567409537e-01
2.895286080899504566e-01
2.786365772713356170e-01
2.576204804841317753e-01
2.113429508952560099e-01
1.862820135601656046e-01
1.848199068857099003e-01
1.731818918073163016e-01
1.226663094166764445e-01
1.535554814831477377e-01
1.656409229322178267e-01
1.421184223904400912e-01
1.641898052028235855e-01
1.755224679835050705e-01
1.329975636905492697e-01
1.759510420499388883e-01
1.968002445781962817e-01
1.917726213130839519e-01
1.933078097620490321e-01
2.070058462574972946e-01
2.035580624360405211e-01
1.911827191954394434e-01
1.278140557263909849e-01
9.669361163401703207e-02
9.637050452538808987e-02
1.382555644479017687e-01
1.351580016906981097e-01
1.107828085750807573e-01
1.208098483792460209e-01
1.074294491393617268e-01
1.012798288011211578e-01
1.095027758666140549e-01
1.414773323282493833e-01
1.288977008664765056e-01
1.091810357403395354e-01
1.250481453957043576e-01
1.383460262619999326e-01
1.957939893068529336e-01
2.106886864399821202e-01
1.570633616767265206e-01
1.391765887984442451e-01
1.408430050009017998e-01
1.953746749698448970e-01
2.606964401270899789e-01
2.747372975111939120e-01
2.429578934880111118e-01
2.499566963602520842e-01
2.286320145203309395e-01
2.618070905182109942e-01
2.778076192068122952e-01
2.558779229219186879e-01
2.388534631709860467e-01
1.959560336979937478e-01
1.979322841499077112e-01
1.563073052577660105e-01
1.583284511583510912e-01
2.010859017881055366e-01
1.687362071459711510e-01
1.478116871427382906e-01
2.180634063222414154e-01
1.791845084805055721e-01
1.886828580440274017e-01
1.710395315812931472e-01
1.871422198346815446e-01
1.651504234591190667e-01
1.665030261802520062e-01
1.465889958980203245e-01
1.875219959121542934e-01
1.165187485258309952e-01
7.260176587182540220e-02
8.587314709515181388e-02
9.584561401173848083e-02
1.344588437623434052e-01
1.648334597107269373e-01
1.869115181163970574e-01
1.302775932398496928e-01
1.159624270410810620e-01
1.216721397156169532e-01
1.166563433559840712e-01
1.169368220753993354e-01
1.017529702694282556e-01
1.675161525814647945e-01
1.543143075008541754e-01
1.257832852400656565e-01
1.408811101618767658e-01
1.407132186637753968e-01
9.646963794940988102e-02
9.999512976296598410e-02
1.023250532442165489e-01
1.512298158364004663e-01
1.515928658043907418e-01
1.052002693701068470e-01
1.180320582100495563e-01
1.528661395038353188e-01
1.466796563089655669e-01
1.188156981514479210e-01
1.265913282589603284e-01
1.116009532049791753e-01
1.211820729555375814e-01
1.136875851036943663e-01
1.125706132129215276e-01
1.387100224311094421e-01
1.512718366426856753e-01
1.514738739712717108e-01
2.011037116724267715e-01
3.599867067249810648e-01
5.000336080693639218e-01
6.659092478092826228e-01
7.597678552867138668e-01
6.621487573008775218e-01
5.562484974282257966e-01
3.740366496843856026e-01
2.286782283825593565e-01
1.313241146726375486e-01
8.988861254430896564e-02
9.665939410296166268e-02
1.328198596410649357e-01
1.858822789857031421e-01
2.147793693962653516e-01
2.062608526074314885e-01
2.113486270107558518e-01
2.196229454356521116e-01
2.298174276925646353e-01
2.070997567639506209e-01
1.745986920966416389e-01
1.740276310494792422e-01
2.110589390667700627e-01
2.087695871457684316e-01
1.942582159394916907e-01
2.078427284390052532e-01
2.073501600181573701e-01
2.179349854478688786e-01
2.458857915758825285e-01
2.443899577426123237e-01
2.531113761832647358e-01
2.623820096602609842e-01
2.610739037318619005e-01
2.815050678917853100e-01
2.657149841550366931e-01
2.629965739590890417e-01
2.853315120169370167e-01
3.202004832057785411e-01
3.573870057386182575e-01
3.553110720221201446e-01
3.261208742134082961e-01
3.586057688328406767e-01
3.517807171411773126e-01
3.605801739099274705e-01
3.569840662515209040e-01
3.193935116774953009e-01
2.749162935067200886e-01
2.451115024754075833e-01
2.624377328456912739e-01
2.577772190242957340e-01
2.222159266453790361e-01
1.712922008739458102e-01
1.919474620400389298e-01
2.056619817362242419e-01
1.783640655234671191e-01
1.252698211679259543e-01
1.410640499701246720e-01
1.692303689337295025e-01
2.307837405139702702e-01
1.899699173022909582e-01
1.745116296922767096e-01
1.386768285092516151e-01
1.081375081898401647e-01
1.708649223298005504e-01
1.675115734676254353e-01
1.191038837819391044e-01
1.266680440742902480e-01
1.900767381136904133e-01
1.641156773177854800e-01
1.216884418023230358e-01
1.344380143052043008e-01
6.815421089842994828e-02
7.759214897138191902e-02
5.868122290755610482e-02
6.300039685899574970e-02
8.665560603493685510e-02
8.930296887002232842e-02
1.091014626108651880e-01
8.661454894818194916e-02
1.095949985981298919e-01
1.309624982305050978e-01
1.316506133099945020e-01
1.570828325068379661e-01
1.575086869474479623e-01
1.369590324741946086e-01
1.401495294568691485e-01
1.135060312708406072e-01
1.074812636436628249e-01
8.658151660273105676e-02
1.295051627676017114e-01
1.482290173073613493e-01
1.618909274227728901e-01
1.993761710655918840e-01
1.862341134120586994e-01
1.387154672212252138e-01
1.376499619256876250e-01
1.324914449290595930e-01
8.711234099142851905e-02
1.037108216547185519e-01
9.782736581607784365e-02
9.164527309982374581e-02
1.143360878255419988e-01
1.118952794017510077e-01
1.410898072530580305e-01
1.642021651034856755e-01
1.863131344686533575e-01
2.169132791896133672e-01
2.095299614602937344e-01
2.228302134568437565e-01
1.817965602499032884e-01
2.063887883707199444e-01
1.946906808209377948e-01
1.994688003894690698e-01
1.714453543164851934e-01
1.194461217738570780e-01
1.244142209387409104e-01
1.065537681690280625e-01
1.083072461432832007e-01
9.590743739820789537e-02
1.220109706902036545e-01
1.422248234270409584e-01
1.204972022439811385e-01
1.115646286086695860e-01
1.001369386109749599e-01
1.176871809077689041e-01
9.765387917687450015e-02
9.916585184055869140e-02
1.277156603513541211e-01
8.006813870204869399e-02
1.388574128161218779e-01
1.721104584176317287e-01
1.887330131624896934e-01
2.418309460677593448e-01
2.423380807613667587e-01
2.450436935321159693e-01
2.095334597207087202e-01
1.796416880834852126e-01
2.034632715960198734e-01
2.135631059425728839e-01
2.413187574359496601e-01
1.679436859942130544e-01
1.066254633033940913e-01
1.050835276969298848e-01
7.288501050143653126e-02
6.964692672424413478e-02
8.963274973731769069e-02
1.293989825376187508e-01
2.219494058315373275e-01
3.889867988770063234e-01
5.521188994711920817e-01
6.144403645006296655e-01
6.913037191978812501e-01
6.319181026403360990e-01
4.978965476652393307e-01
3.525423698180712440e-01
2.464779804686140774e-01
1.893001456865662790e-01
1.548831850141217659e-01
1.433409565119032059e-01
1.734478141160611941e-01
1.616488442156540362e-01
1.892684524805910429e-01
1.522574257773608997e-01
1.519848731692395316e-01
1.589588151449798648e-01
1.648827095226873263e-01
1.585899603047782325e-01
1.331365385308220239e-01
1.598101914286408909e-01
1.639633711624093881e-01
1.830667771486416406e-01
1.807965450493345116e-01
1.851972221076144676e-01
2.031692165362713465e-01
1.786886707684021969e-01
1.707606876264222417e-01
2.241948574732076371e-01
2.513680886219815669e-01
2.687114602874075553e-01
3.008988062947731135e-01
3.258098347793989547e-01
3.618569920295693354e-01
3.895252045358350568e-01
3.785998202160262283e-01
3.399780600042076051e-01
3.334746439076278213e-01
3.497661688511328748e-01
3.361248677408241181e-01
3.259965581115078503e-01
3.355381315022880617e-01
3.291734547305119607e-01
2.754556343269184415e-01
2.297934345280794877e-01
2.137647668294366810e-01
2.564688154552184907e-01
2.273589185984128680e-01
2.282956844104372107e-01
2.670177311660842934e-01
2.276421139908362257e-01
2.069237785181325395e-01
1.844316827147297611e-01
1.659585513323582062e-01
2.093741089515033238e-01
2.035260483494319983e-01
1.895528076102278581e-01
1.987468196982736246e-01
1.603798163929878728e-01
1.524201563682185956e-01
1.887142681620379014e-01
2.006179946791141755e-01
2.449891083124969837e-01
2.145530744342409868e-01
1.695581716815237061e-01
2.057175556421024787e-01
1.877163098085722626e-01
2.186382503127780041e-01
2.426171073084490704e-01
2.573989104595272859e-01
2.620442686210932015e-01
2.195396814368764105e-01
2.148631631013498133e-01
1.975011322888332588e-01
1.916359032832375964e-01
1.831084504118454526e-01
1.831094810101661363e-01
1.838640177962999611e-01
2.337902458273571904e-01
2.192567867494883971e-01
2.234116752785055282e-01
2.037106001917598774e-01
2.127029678907830235e-01
2.141245660725190070e-01
2.065308667329529557e-01
2.513293508096230422e-01
2.882079941774160492e-01
2.716896809115701417e-01
2.348632752949599556e-01
2.288894008318573259e-01
3.057870395893313442e-01
2.639016671141392045e-01
2.410403473604401103e-01
2.269331301964607472e-01
2.783016069588103436e-01
2.727091195681839997e-01
2.558494750334985857e-01
2.721583599455866809e-01
2.015817210331655174e-01
1.512426664902021822e-01
1.714241622011540844e-01
1.716445480834370430e-01
2.049307998090345861e-01
1.786776516437963425e-01
1.296492978944091545e-01
1.670284645808768342e-01
1.706994428584447665e-01
1.629938159732732539e-01
1.879889697114403568e-01
2.390593056448651610e-01
1.991453362966142115e-01
1.760272547202424986e-01
1.878151858208021996e-01
1.695344522014851640e-01
1.981417822384025085e-01
1.805226538813554105e-01
1.576473862802522108e-01
1.422917100901623932e-01
1.500586677655730838e-01
1.481479559985298400e-01
1.478532935223803579e-01
1.970695405463392946e-01
2.548918808127945690e-01
2.400054971192208952e-01
1.946057280362794017e-01
2.085158089132897463e-01
2.381386358108646406e-01
2.205825297818477804e-01
2.495158967591272758e-01
2.195804299618863142e-01
2.419505545691925386e-01
2.511837570828114319e-01
2.398136906840212523e-01
2.443558920978858851e-01
2.764028202321116012e-01
2.765269206613565900e-01
2.370317441252602908e-01
2.114002620296353552e-01
2.167554055079068120e-01
2.062784673909929811e-01
2.352276118310125952e-01
1.953952878399361770e-01
2.123613191000619238e-01
1.630321744556434416e-01
1.414166982440701048e-01
1.660504960070290359e-01
1.725372978943676139e-01
2.040218832086402312e-01
3.292118843891451707e-01
4.718296763425904317e-01
5.930124671582124307e-01
6.973056363242933209e-01
7.369582054038776864e-01
6.942419780642666849e-01
5.585126550820789237e-01
4.417744882152968566e-01
2.988945444292617770e-01
2.052483837266458611e-01
1.945383168134293961e-01
1.687820459740334844e-01
1.767737708563314469e-01
1.866710401936639563e-01
1.971463152886259174e-01
2.107823062669962888e-01
2.259952256376433488e-01
2.087717696292721858e-01
2.275072451225307879e-01
2.329298136928467100e-01
2.375134177104721300e-01
2.430293731278378444e-01
2.267597027792890851e-01
2.097582749259374046e-01
1.779946796833870304e-01
1.777256873073411736e-01
2.205717190142999495e-01
1.848983590620164041e-01
2.106757605609694828e-01
2.435369256624068668e-01
3.001662623606335956e-01
3.010567543117723122e-01
2.746917020579479063e-01
2.586230278334070709e-01
2.926873345336312715e-01
2.475545348115961442e-01
2.330092487337173668e-01
2.423235788564915283e-01
2.687210042988874559e-01
2.638296594003446405e-01
2.561953664366604655e-01
2.957380326530010262e-01
3.426003511088097642e-01
2.997157701479200576e-01
2.546358764015005383e-01
2.594851409388543306e-01
2.624026050582592973e-01
2.859973108128379682e-01
2.546654296225882574e-01
2.545783365246170882e-01
2.279898439992520953e-01
2.051892480805755925e-01
1.526439954989065317e-01
1.438588793350213113e-01
1.467814960684673542e-01
1.484803186558389942e-01
1.470545471457796183e-01
1.561196572503119051e-01
1.593187033150874066e-01
1.880429852889600739e-01
2.055759092785719999e-01
1.787071745240071396e-01
1.783382664922469885e-01
1.723149445384543343e-01
1.633847645798714443e-01
1.488002367037285500e-01
1.921858150313303648e-01
1.977558440107293203e-01
2.187617146376436561e-01
2.053366043163993848e-01
1.653541958958588964e-01
1.667968373061209930e-01
1.897275940803870853e-01
2.112534885577296295e-01
1.727285811588164244e-01
1.360741053807869583e-01
1.410208154583851847e-01
1.837630972532107720e-01
1.992943405820578606e-01
1.621307249750528201e-01
1.634013755996766570e-01
1.813548001820348143e-01
1.804425921551033041e-01
1.637662567542334524e-01
1.807884775533503685e-01
1.696890470031158782e-01
1.816560386335082100e-01
1.752058482339478307e-01
1.992659624573643873e-01
1.576183118597814237e-01
1.577691522166451976e-01
1.766467906590498127e-01
2.011589907936399135e-01
1.740596339254728564e-01
1.507455135630842991e-01
1.604946183016970340e-01
1.442651268265518205e-01
1.264636297064414827e-01
1.268933659401706715e-01
1.220979962830749110e-01
1.099361535422509195e-01
1.109241709471893989e-01
1.077238628296820211e-01
5.732135451911977292e-02
5.651889771823002950e-02
6.071942701186493901e-02
9.686246183593751058e-02
9.367991507083661684e-02
9.479441566778451511e-02
1.317632605947288149e-01
1.245479888994656670e-01
1.031343585095129967e-01
1.114103820557338087e-01
1.025511971702492142e-01
8.580285524546840681e-02
1.509355064151592374e-01
1.314389497208902913e-01
7.451911640610378584e-02
5.306817278499982582e-02
9.713801612796402196e-02
7.266841375059740482e-02
1.081852221304464429e-01
1.316300556424300772e-01
1.326214881532033207e-01
1.261442886528324481e-01
6.560454896293685390e-02
5.774417299060229797e-02
7.717877750088285305e-02
4.439914345691721442e-02
4.811674045608984457e-02
7.035930473009131825e-02
1.133860967729899555e-01
8.005459429590368325e-02
9.177919144627198766e-02
1.243298540610136282e-01
1.351211399394481316e-01
9.955088783836903155e-02
9.464942656120876874e-02
1.286508319813285395e-01
1.437578660330619817e-01
1.679704212883877668e-01
1.787367141293669803e-01
1.725685943581601323e-01
1.151087482829264569e-01
1.207966199361798776e-01
1.325578253368554504e-01
1.115313662278862583e-01
1.366275268908254126e-01
1.602654800092101761e-01
1.736175928790052725e-01
1.207838339856273369e-01
7.762110939846621205e-02
1.040286160928128312e-01
1.755920168480670229e-01
2.206074694743263009e-01
3.585606448070845498e-01
5.096140157072969190e-01
6.878296699541741610e-01
7.501329069827726848e-01
7.370160381636239322e-01
6.402263192546254755e-01
5.000148486730668917e-01
3.840515253409262364e-01
2.421555038169863616e-01
1.876365992560658225e-01
1.402544209160394573e-01
1.242857537794950229e-01
1.884005949849813233e-01
1.743777460477165531e-01
1.328370658224830858e-01
1.563730776828591296e-01
1.929269940416403206e-01
1.736219434461016564e-01
2.064050372523638099e-01
1.948276806687371798e-01
2.111360612694539174e-01
2.617473197067615720e-01
2.554406071780858101e-01
2.681330887344328673e-01
2.382719821995976095e-01
1.989137672050494410e-01
1.856909565475271251e-01
1.647627595463559413e-01
2.075517706084403502e-01
2.742118270089332621e-01
2.778145952629876292e-01
3.054518428468327995e-01
3.216447785190882369e-01
3.220037501661877632e-01
2.931568551234067788e-01
3.265061987939725241e-01
2.927279652551089129e-01
3.188560737392377442e-01
3.370438831202919872e-01
3.793008633036510369e-01
4.160391634731562815e-01
3.741450032476821841e-01
3.352988863014371157e-01
3.255958213548880709e-01
3.175179967621150623e-01
3.003264053732644379e-01
2.328670547027974491e-01
2.343981862719396736e-01
2.504022007048543608e-01
2.537205573734736541e-01
2.263753342490214815e-01
1.997402212290090573e-01
2.276853642713402570e-01
2.187306825087894646e-01
1.914887177979461008e-01
1.960135017049257633e-01
1.895772483691930410e-01
2.120126738102553476e-01
2.077856480923508942e-01
2.441898563126780886e-01
2.587378978136255503e-01
2.154969613200528877e-01
2.198470777341677285e-01
2.293423560333184008e-01
2.301311683849404655e-01
2.594393823686505507e-01
2.519443985902204419e-01
2.170132998914882649e-01
2.071812918022634120e-01
2.236705624528597947e-01
1.823040420474547063e-01
1.615503831012103930e-01
1.548230741209551398e-01
1.805962229520700346e-01
2.116410039268695753e-01
2.003797267729197362e-01
1.926820439107641558e-01
2.106874320081683072e-01
2.448827563234387550e-01
2.293501004466447224e-01
2.112601056404727340e-01
2.024226096610660386e-01
2.139750750807507262e-01
2.006246189442494055e-01
2.039109430018042901e-01
1.932141714535726695e-01
2.025341654838237193e-01
1.820668220661094683e-01
1.756572739782349957e-01
2.020469352839313615e-01
2.201523643945361708e-01
1.969079084568084448e-01
2.029634538875120520e-01
1.653118116197637433e-01
1.691894039251115311e-01
1.502574796501115473e-01
1.918274363871305677e-01
2.393516951764420586e-01
2.315328622957799620e-01
2.288158523039569847e-01
2.251394302048271845e-01
2.423416960595118352e-01
2.303421023699325221e-01
2.484258556457929201e-01
2.200036273922192920e-01
2.264929963426489112e-01
2.433644122312928759e-01
2.289723794840890780e-01
2.159609072856630008e-01
2.194478285277554064e-01
2.275074941664067263e-01
2.438126851483477520e-01
2.442402662576974026e-01
2.283565190171542580e-01
1.939550538609861319e-01
2.080683552155309091e-01
1.574892631495712902e-01
1.189487227175640982e-01
1.447358540666589810e-01
1.742008858424456408e-01
2.202631491341645598e-01
2.230075963730509536e-01
2.018082752724745799e-01
2.218868219840665623e-01
1.842805054390745378e-01
1.388571078194656971e-01
1.249808647924596783e-01
1.443330684819156273e-01
1.697894609212003691e-01
1.848018218108897215e-01
1.922285612603741312e-01
1.900250389154640729e-01
1.699840992400779294e-01
1.494082122765961473e-01
1.382579545294421730e-01
2.079667670900593179e-01
2.358096238971836012e-01
2.372843558548942133e-01
2.789927237976322916e-01
2.661831634665657864e-01
2.385867523304551485e-01
2.413599741029184009e-01
2.290766183094827824e-01
1.962594012473775074e-01
1.697293772105315235e-01
1.530167044797615672e-01
1.671701413268336101e-01
1.995858831043497150e-01
1.678848464543639118e-01
1.590249144309367479e-01
1.096761270457013437e-01
1.421434165934888361e-01
1.717098810490959859e-01
2.899078330521183133e-01
4.591068821424649782e-01
6.043064034779046523e-01
6.956409363137673330e-01
6.517496594284627465e-01
5.529800235068135228e-01
4.073131195757995759e-01
2.626030280847598264e-01
1.922730305980869248e-01
1.686794712399073415e-01
1.599854352781883149e-01
1.803451083118185472e-01
1.669119302945590855e-01
1.295532884203157986e-01
1.408880696211002315e-01
1.012185788551130394e-01
1.115860980429526084e-01
1.457562278543400869e-01
1.720712924750156525e-01
1.467013280002600339e-01
1.387929153385054071e-01
1.634415271138230652e-01
1.730817278158748307e-01
1.540352730758933197e-01
1.741668941574601448e-01
2.318428290234914868e-01
2.746879859011149838e-01
2.435430264873672535e-01
2.277086776440748195e-01
2.475199646521944741e-01
2.516279224158176619e-01
1.899304476262364538e-01
2.023970127078409953e-01
2.391803525665026908e-01
2.852457392152483173e-01
2.887485735213319860e-01
2.886061761156133443e-01
2.944809853847354386e-01
3.257769222494265593e-01
3.329305978776005981e-01
3.681941709750040093e-01
3.622995425718944507e-01
3.380414978722101060e-01
3.379207952306445550e-01
2.887287828575835213e-01
2.462538914715461658e-01
2.943811056413019323e-01
2.715659189895932024e-01
2.635018217507449356e-01
2.442437790834405820e-01
2.227637357958394404e-01
2.105447477824219649e-01
2.299554442126565679e-01
1.795724334869168715e-01
1.933961161790583860e-01
1.860441389426891745e-01
1.193839569913197618e-01
1.115701549960052691e-01
8.731492578957245065e-02
6.392540276730951376e-02
4.006256395528364628e-02
4.620751890715960042e-02
6.577404045753003359e-02
8.787830409717073410e-02
1.024091038631539247e-01
1.315027143228225670e-01
1.456105306117672638e-01
1.273333315230709972e-01
9.295597250579627768e-02
1.446246992069991910e-01
1.368721656527074060e-01
1.252467877911654370e-01
1.324252838233822560e-01
1.505105178209028560e-01
1.363129632130893332e-01
1.256995212009797691e-01
1.706740746790722241e-01
1.844929044778211846e-01
1.755964366524556675e-01
1.352730756100312126e-01
1.231727363353902205e-01
1.482466965274039095e-01
1.619335444834986149e-01
1.892384331785493257e-01
1.779106190441703816e-01
1.696686415100720491e-01
1.958650786426976431e-01
1.890581134533057539e-01
1.509391083437533476e-01
1.614175929363857731e-01
1.589428650019981126e-01
1.595811297911432225e-01
1.559459181829040419e-01
1.236633254292694994e-01
1.253559016104177082e-01
1.431677329907480589e-01
1.345113483748721639e-01
1.494140913752051159e-01
1.774772867826198697e-01
1.685875276136856171e-01
1.884081196840856065e-01
1.823283383690554871e-01
1.661231846041602844e-01
1.398783983977726630e-01
1.120679792396419433e-01
1.218275452169619855e-01
9.798214890047071690e-02
1.187654472814628770e-01
1.033699303839291650e-01
1.322024761619031707e-01
9.868037101180728021e-02
1.116140561345305704e-01
1.392205789089141499e-01
1.009973557216532203e-01
8.047482850956304279e-02
1.095018140057478773e-01
9.690945480847705518e-02
1.278651101856564942e-01
1.161251526146363511e-01
1.140862470310491095e-01
1.107752318428447402e-01
1.203854554056162929e-01
1.343672792140477024e-01
8.713595026766859930e-02
1.119637748768101404e-01
1.435053154542073606e-01
1.751917853503320854e-01
1.585557089668648834e-01
1.820757115738087517e-01
1.977575888916101310e-01
2.367130107560016516e-01
2.251918003743058616e-01
2.027632828610493321e-01
2.119423663519848233e-01
2.234789475759882127e-01
1.851097490046972882e-01
1.707217448988860575e-01
1.501829245588837958e-01
9.497571497212224656e-02
8.751848181194289700e-02
1.203838729367872062e-01
1.217013553668992720e-01
1.073775394978301045e-01
1.339024306753643367e-01
1.743668857119968774e-01
2.846157007795409588e-01
4.290763882577768307e-01
5.586028537890092016e-01
6.573523416984476953e-01
6.659060324442628298e-01
5.803389661008176992e-01
3.931442420842499175e-01
2.538179545991569031e-01
1.891849308238304217e-01
1.490090461557782853e-01
1.204864212944632834e-01
1.397197373759801464e-01
1.714149561508722108e-01
1.934041182953288862e-01
2.022882595246420223e-01
1.702420953381509339e-01
1.606965858368177291e-01
1.185448332388821802e-01
1.229811379293478391e-01
1.469001544730385855e-01
1.274671345371648501e-01
1.419644245661483006e-01
1.563125756774012554e-01
1.567352682135116637e-01
1.545450144951165949e-01
1.756238976282709918e-01
1.782167171464860700e-01
1.591649384536681089e-01
1.919179281990917030e-01
2.121777087290449282e-01
2.071733045351127067e-01
2.283371952978326680e-01
2.192128557172531023e-01
1.991164908153116309e-01
2.144751161830100727e-01
2.412276769546757293e-01
2.151718146737482684e-01
2.404506509655400526e-01
2.413132955629383181e-01
2.567215975931857463e-01
2.600863110199621575e-01
2.526768304495968231e-01
2.684234536561064810e-01
2.459050106644662392e-01
2.106392358630745365e-01
2.211119880238310575e-01
2.100113645127362205e-01
1.779712088613092380e-01
2.212179455996220456e-01
2.096088293965958360e-01
1.536906458299835687e-01
1.518873847737957639e-01
1.301852309240832117e-01
1.615206491067953387e-01
1.764708072459755528e-01
1.879412156471144957e-01
1.680599373940316887e-01
1.303981233286342634e-01
1.204548498596487022e-01
8.876603859625809001e-02
1.651355998998371433e-01
1.417324402100961778e-01
1.313546330817174923e-01
1.574228369978917796e-01
1.656835891212186662e-01
1.764703010355588852e-01
1.397210503080059119e-01
1.336509121939034594e-01
1.414199540130740285e-01
1.319854655674627675e-01
1.024127592492032335e-01
1.126326618805834900e-01
1.435653830976414969e-01
8.629143430357509581e-02
1.261072855174690255e-01
1.129161365988318455e-01
8.748428001850044877e-02
1.059325709782756308e-01
1.016044689548221136e-01
1.378036991689980950e-01
1.307970123469299195e-01
9.291037873486586440e-02
9.747008122473645175e-02
1.180059272312249941e-01
1.345979824126573021e-01
1.192223314050775279e-01
1.144052173932847138e-01
1.434797676657285914e-01
1.623882550771720834e-01
1.749324891809824201e-01
1.842839049779169402e-01
1.509238104524187607e-01
1.404299810685935568e-01
1.758536949788991888e-01
1.538844816540141103e-01
1.397440431966956442e-01
1.514367073100073569e-01
1.758033754805582993e-01
1.508660375298055412e-01
1.510166597064059313e-01
1.535611269410798174e-01
1.466686562733800492e-01
1.654171000610106246e-01
1.447024500636055755e-01
2.021384811534222559e-01
1.668431668644069221e-01
1.523092252887053855e-01
1.654019848392297987e-01
1.562739431530748568e-01
1.539929028872249750e-01
1.484951824830522127e-01
1.688265198582786786e-01
1.597319500125278513e-01
1.492484571850311581e-01
8.021106428578687886e-02
9.849178530477589733e-02
1.541532451104835333e-01
1.712556744436066203e-01
1.489475961655972180e-01
1.398438147188281466e-01
1.593482653163234564e-01
1.471316863914807760e-01
1.483288582682155687e-01
9.445556467755973629e-02
5.538461476633951830e-02
3.425821193069575332e-02
6.884549364917888492e-02
8.144816529235764102e-02
1.139226729420139000e-01
1.834775150118855280e-01
1.546389495594084063e-01
1.804265385086129825e-01
1.927284629097998914e-01
2.098065953779679471e-01
1.645710357527986334e-01
1.644956173579457670e-01
1.257219151198135654e-01
1.508319002488503480e-01
1.406634530192129584e-01
1.711759237902522601e-01
1.759790251967627006e-01
2.472963389900701692e-01
3.657426349095495577e-01
5.596979742262462310e-01
6.779531313342597176e-01
7.128530803471871957e-01
6.963845477462752287e-01
5.500229649162582390e-01
3.600523723622947037e-01
2.238846092505147045e-01
1.695057955665262850e-01
1.887241816014194606e-01
1.944293340114673363e-01
2.054948908298124544e-01
1.543640940227125613e-01
1.042700712454081857e-01
1.433406695656575525e-01
1.228596928020598694e-01
1.145357302025183099e-01
1.180315890808536217e-01
1.518884832068347068e-01
1.671715309721565346e-01
1.610452831714546396e-01
1.482860149600503663e-01
1.592742666390562223e-01
1.597566787481097261e-01
2.149988562719897522e-01
2.179099412176969675e-01
2.296554800689588061e-01
2.701889036582327819e-01
2.684701702336740325e-01
2.539113584228884779e-01
2.520167870027019696e-01
2.738673308731509604e-01
2.534741426458576030e-01
2.686968102407490955e-01
2.325615608924583855e-01
2.658391307504752166e-01
2.718993155164113329e-01
2.767381685393014989e-01
2.570086245431734140e-01
2.454494195445395543e-01
2.662961379672895146e-01
2.624672621105371140e-01
2.407556728666276069e-01
2.173744330517830836e-01
2.068284721871784804e-01
2.281492393676432529e-01
2.256462360792993449e-01
1.791974530953138467e-01
9.662377579501285618e-02
1.333252285682010319e-01
1.242534359601525085e-01
1.438124919937555091e-01
1.494556058766767226e-01
1.438415949049452469e-01
1.416698596983451408e-01
1.445059062553694096e-01
1.382003330725318224e-01
1.303960370189709006e-01
1.083472260531913589e-01
1.326599392066228900e-01
1.105346137947983698e-01
6.987936345199677324e-02
9.227664947283222008e-02
1.261050757982775106e-01
1.101296518479011610e-01
9.257905582021187796e-02
9.976253187390522748e-02
1.374996127821387915e-01
1.208876113422490683e-01
7.435063976251760076e-02
5.855370119553500452e-02
5.767062650414324365e-02
8.507675835974251588e-02
8.077304801230603126e-02
7.881704201126571441e-02
1.252928225192133649e-01
1.326318751292291098e-01
1.114604038938657449e-01
1.177366504437954431e-01
8.866084448439345844e-02
9.109409716748773089e-02
1.046188830100630296e-01
1.128085236473257424e-01
9.266698667411567281e-02
6.689505337193465961e-02
1.005939088260865144e-01
9.948360716635624990e-02
6.774492174111898524e-02
6.078041916931480049e-02
4.566530289145092486e-02
5.497317579675434218e-02
6.355833312989271622e-02
4.771838046428358848e-02
6.792984660300387112e-02
8.267735757389794993e-02
5.575817239097067418e-02
5.709521769214629533e-02
1.036255725987303006e-01
8.750322181551116463e-02
7.025377432423540736e-02
5.964510738334311696e-02
7.249975591661625418e-02
3.415520713448737949e-02
3.869764951690451982e-02
8.232543514976747856e-02
9.085860132752664187e-02
1.037378842783660410e-01
9.535469488161366081e-02
1.119801972039601717e-01
1.087939241227971338e-01
7.562945469223128492e-02
8.920708663223718415e-02
1.146938815477381440e-01
1.207045963953099765e-01
7.305479299596874532e-02
8.112035358091246318e-02
6.599317663188301875e-02
8.260822422161764877e-02
1.018213640567799116e-01
7.999052133230261097e-02
9.597479621576716913e-02
1.016564666495501229e-01
8.968790247371988267e-02
1.006873209216911369e-01
9.981111938267503425e-02
1.277235078534704193e-01
1.525598318086676675e-01
1.153511688976538857e-01
1.319539860240097062e-01
1.693950117800287203e-01
1.151980584537683205e-01
1.163916154785078344e-01
1.244784728996579937e-01
1.040211354796843624e-01
9.929619675183029570e-02
1.193847004039625126e-01
8.420919975529170265e-02
8.416179603543862131e-02
8.255537749023211802e-02
8.202846441141983802e-02
9.033004075880710082e-02
1.188809342650206519e-01
1.335284758085600598e-01
1.957923527003904984e-01
3.697819692668157798e-01
5.240195240725976644e-01
6.193637294109654023e-01
6.720543224613620970e-01
6.408656647424334496e-01
5.111356101545649899e-01
3.258047607151671743e-01
1.613273631929217355e-01
8.457988970418213459e-02
4.830540689073609117e-02
5.213206430278854303e-02
6.805753396255835586e-02
7.180421767778306930e-02
1.280048822187156710e-01
1.525252193645836862e-01
1.273733093334950550e-01
1.022305124124415349e-01
1.129973770988120796e-01
1.521627975443702874e-01
1.724243726004345556e-01
1.578429835809815052e-01
1.770558560083069777e-01
2.293557532046739400e-01
2.276020961245443786e-01
2.320802117028304967e-01
2.588385174422733748e-01
2.624029268293457395e-01
2.642274304998128986e-01
3.053647057744895976e-01
3.311778171036128815e-01
2.997262108018485804e-01
2.997277911732334488e-01
3.131642669049221617e-01
3.133168961943684772e-01
3.268078594153411842e-01
3.400394873923998085e-01
3.359650660678771827e-01
2.827499514020751503e-01
2.144385036183298066e-01
2.763228626747670780e-01
2.761965978055946902e-01
2.587160082097904601e-01
2.520445096787337080e-01
2.575065385955466191e-01
2.511271308294623084e-01
2.360405023862303664e-01
2.691802500095038519e-01
2.001807239186625953e-01
1.822458305972054771e-01
1.530004187477169708e-01
1.867726951183274198e-01
1.778257618949083685e-01
1.672199585227369945e-01
1.623841639095870426e-01
1.637874773645493498e-01
1.236451856611443800e-01
1.336183742418596276e-01
1.273672026551584679e-01
1.110043381969110232e-01
8.887612162097097146e-02
7.181205096414766675e-02
9.890157225313800371e-02
1.123484233434210722e-01
9.662989389355083891e-02
9.086206226081951220e-02
1.233314918172299657e-01
1.040713462338764134e-01
1.137246228476626320e-01
1.025635980932035063e-01
1.330560608101042375e-01
1.076198945111301875e-01
1.096349167482263826e-01
1.310308888808351391e-01
1.143994208905217275e-01
1.383603667647169133e-01
1.418769901015901613e-01
2.093246942621145856e-01
1.822174721074503456e-01
1.831914744717301480e-01
1.901674672046176906e-01
2.515527838897382296e-01
2.042200919390337321e-01
1.883044199588045919e-01
1.475045042471106738e-01
1.401999262029579585e-01
1.724615195702720594e-01
1.734169655199228888e-01
6.102981252939734813e-02
8.946909527769940362e-02
6.244914135664541427e-02
1.053032826873280814e-01
9.308147492709724358e-02
1.099583559284563611e-01
8.452403385953874415e-02
1.441923566508659660e-01
1.157977053573012310e-01
1.219316645219282180e-01
1.287868437478593420e-01
1.029331912457652487e-01
1.058555865676149149e-01
9.980545750678436467e-02
1.388721338818092177e-01
1.478164188941301360e-01
1.809902534178747247e-01
2.086066230596896609e-01
1.760063366657696193e-01
1.622825676637575376e-01
1.754378210616570066e-01
1.928639052593620062e-01
1.684915467151416602e-01
1.937501665958778485e-01
1.954016724453042642e-01
1.557643181580553038e-01
1.472577542441779741e-01
1.241500314032921298e-01
1.382144354323566748e-01
1.497030315906655584e-01
1.409064529041825220e-01
1.432406067759924018e-01
1.302813887560139439e-01
1.412351402356973873e-01
1.271959976025250905e-01
1.842983670461303403e-01
1.664204904201103674e-01
1.181847511400505035e-01
1.157964920160018535e-01
1.557763969130644965e-01
1.902023027701801317e-01
1.343093255710269551e-01
1.392320293735901382e-01
1.173582138347050302e-01
1.320556801809999736e-01
1.544190612475512814e-01
1.650020840193180960e-01
1.918160668593563989e-01
2.005090869711513846e-01
2.223871827553253744e-01
2.343262374435750861e-01
2.455100277209270043e-01
2.424502570641746124e-01
2.244300518723659765e-01
1.746065987395498120e-01
1.584001527017840916e-01
1.829268507352529993e-01
2.000797047268023654e-01
1.240080027450008726e-01
1.059224323535506718e-01
6.842413836559273210e-02
1.332186091751562385e-01
1.546343866395920030e-01
2.415031349406750738e-01
4.003035468874445169e-01
5.522287231216589376e-01
6.987867261260293228e-01
7.553004561464461419e-01
6.932125250048265519e-01
5.391902551476994709e-01
3.556731336271854449e-01
2.033690848488009517e-01
1.393028328163123108e-01
1.214490002753655096e-01
8.561441915209805353e-02
3.506389721063402770e-02
5.273135244627794038e-02
6.397717026780602723e-02
1.160896819927383639e-01
1.523681214660150829e-01
1.756367373475643534e-01
2.056614934425983199e-01
1.595136030905352220e-01
1.460654286762292364e-01
1.355060190987386892e-01
1.644671786447850503e-01
1.658704575760709399e-01
1.723113126693058550e-01
1.686748491190170340e-01
1.856326691558528308e-01
1.735329022191450798e-01
1.685430126769205394e-01
1.723114894487127180e-01
2.056306159453799021e-01
1.923999767499511571e-01
1.922103774549810407e-01
2.150083767204569174e-01
2.680659073262512404e-01
2.796160181903702413e-01
3.235054708965904302e-01
3.178767796495442499e-01
3.218191209046843970e-01
3.433983911529724931e-01
3.219732939635511215e-01
3.123714785314873899e-01
3.652760436413934331e-01
3.376012966610660859e-01
3.078093904271312353e-01
2.675702944026726593e-01
2.100735208832266165e-01
2.239248121563870153e-01
2.264137430057134859e-01
2.058997522471570640e-01
1.998445055226572009e-01
2.181962567463091862e-01
2.112076928926110708e-01
1.719011032344074930e-01
1.746382916891500436e-01
1.636844803664866954e-01
1.229118997358015219e-01
8.460300594368544425e-02
7.569969915096859403e-02
5.051139804014093126e-02
6.436103711691038010e-02
8.184345891436599352e-02
1.072478642987390179e-01
8.316986228639931811e-02
8.087256768281154973e-02
1.191049647024931546e-01
1.264975958764402164e-01
1.061896320133620120e-01
1.342116290190119021e-01
1.229030809898468274e-01
7.973377967231855268e-02
5.391809338073973168e-02
5.290232121875793753e-02
9.276381881429081322e-02
1.055394685197801330e-01
1.119825231162735191e-01
1.066315571414288843e-01
8.720410081792495660e-02
1.097832450192187115e-01
1.400307662751744398e-01
1.292637209951582600e-01
1.095236416424568704e-01
1.203851724141486862e-01
1.064397449270664958e-01
9.076882255064951111e-02
1.166417954986423006e-01
1.174036136607607417e-01
9.419123401827073083e-02
6.013960204305235369e-02
1.055836865510391687e-01
1.434796335723325933e-01
1.279085226782301077e-01
1.314412040272957272e-01
1.582052812383742402e-01
1.314095015020925739e-01
1.681565106680722455e-01
1.787908013887108405e-01
2.131937944103996507e-01
1.775754877619663552e-01
1.499705666977838581e-01
1.430265737983444918e-01
1.295549361579287906e-01
1.297619136478719848e-01
1.544392894418360751e-01
1.298439420698581648e-01
1.063642201093898398e-01
1.510116441973643753e-01
1.584298481406659631e-01
1.788947382511100193e-01
1.510979408715000805e-01
1.675959321642158939e-01
1.285358259816123949e-01
1.173905839794613937e-01
1.970577112338890435e-01
2.787599264224032702e-01
4.135239031540602905e-01
4.156647705700044493e-01
2.913727845957492790e-01
2.054212913672770757e-01
2.292219322720617791e-01
2.120710913370166262e-01
1.656717458489647132e-01
1.453378673687740763e-01
1.668871654239343361e-01
1.641582571949838087e-01
2.078798860365728696e-01
2.025830492525840798e-01
1.731690698761001457e-01
1.572536776209739195e-01
1.899031076269485363e-01
1.824179840911588912e-01
1.725420983957082210e-01
1.785763338262162103e-01
2.089069573423670834e-01
1.981649935104318472e-01
1.838299273699627867e-01
2.230873098354555495e-01
1.870672723127622672e-01
1.590530235658930147e-01
1.115699229741430182e-01
6.882381554879300756e-02
6.745305205582946551e-02
6.648841474049033140e-02
7.664540706295441819e-02
9.958968871090975727e-02
1.506409129916927991e-01
1.498221278129210354e-01
1.523502569532245166e-01
1.537853342465104189e-01
1.607483003129206722e-01
1.389145122854809622e-01
1.402533654359595372e-01
1.867063279923016905e-01
2.070091801359051908e-01
1.970882016396095782e-01
1.480798259017102603e-01
9.720312152010421314e-02
1.391775031168565047e-01
1.356342303808216743e-01
9.577174472154241502e-02
3.820786560348691380e-02
5.766015394115248105e-02
4.018919552861441313e-02
3.846738658720941229e-02
7.654114320519959935e-02
5.799110848071038771e-02
5.125853220036383218e-02
3.155515469816908003e-02
4.847429117802332793e-02
4.008721727755083092e-02
8.701537955462594620e-02
9.131867021780792903e-02
5.610179303178515486e-02
5.167889985520885548e-02
7.568455910107921292e-02
9.337597200788998186e-02
2.131317296590209132e-01
3.064160464106910897e-01
1.849126005969357334e-01
9.425949373887283766e-02
5.243499144011276591e-02
9.924521021036138146e-02
1.250592970741412624e-01
1.043661241080218322e-01
1.067700725538842654e-01
1.227436106468304672e-01
1.735963133651252099e-01
1.593259827424704234e-01
1.543807918754508679e-01
1.804409945178883923e-01
1.980333303000882672e-01
2.129411275556152838e-01
1.937601273040143179e-01
1.957695111976169022e-01
1.353719025130602494e-01
1.336745532445089424e-01
1.705196109643491997e-01
1.711422721205013708e-01
1.747150164644186709e-01
1.501058549571805123e-01
1.630878516834673164e-01
1.024435267414751799e-01
5.508493189873458346e-02
7.553140100982332072e-02
5.896803890020473060e-02
8.124255997198021051e-02
9.803959728429866016e-02
9.012532910287347765e-02
9.497899579194854502e-02
1.070937665340019329e-01
6.937323010290058489e-02
6.715817961774775413e-02
4.149157642122455747e-02
9.149401016856117952e-02
1.275693674297242730e-01
1.254274481254217810e-01
1.213897245769909594e-01
1.649796325519840012e-01
1.597694308979170086e-01
1.538656428801586096e-01
1.659427777879951549e-01
1.477086046068655512e-01
1.453080486421495787e-01
1.221396293394431121e-01
1.379685947812747948e-01
1.416879889238174539e-01
1.357055720221027606e-01
1.135793209166840456e-01
1.132073778272100206e-01
8.117744585147576575e-02
9.793500781903061170e-02
1.477855051381281870e-01
1.380811231846834353e-01
1.275950438075671434e-01
1.471873447792795275e-01
2.277058978556240620e-01
2.167685332822145150e-01
1.471240920128875362e-01
1.149169769387939910e-01
1.149409556277475042e-01
1.113051532803096405e-01
1.685381068329842580e-01
2.748702795924401476e-01
3.711166735641674430e-01
4.329855814008997106e-01
3.357410134620375519e-01
2.031820601453361852e-01
1.604138401378562562e-01
1.111867183402512477e-01
1.415093919376810006e-01
1.687868940770804183e-01
1.373154953856243199e-01
1.541574292056527851e-01
1.508018477537585722e-01
1.772191816819436438e-01
1.504459993846906929e-01
1.421684212179362694e-01
1.321128996892752816e-01
1.540660455833321452e-01
1.643746866583881139e-01
2.257670286815523508e-01
2.372252995029778821e-01
2.321920674445404342e-01
2.039436089260264207e-01
1.916111017289261753e-01
2.073753847657323623e-01
1.934063753461485180e-01
1.710963134497372196e-01
1.534971347560740995e-01
1.402804276832726460e-01
1.229374261343678665e-01
1.633743116537144102e-01
1.807985996986777311e-01
2.134114469645786993e-01
1.775895066215004425e-01
1.846740800022367290e-01
1.521513460847001564e-01
1.453464695030197151e-01
1.900072364120892754e-01
1.995185373754169711e-01
1.497686318384774395e-01
1.159295481059407218e-01
1.377169896653029357e-01
1.731977146087406438e-01
1.828335278221256965e-01
1.793614839655489068e-01
1.960546914155330001e-01
1.587204151496739435e-01
1.488904828815759140e-01
1.401615781347046452e-01
7.793104096284383941e-02
7.913545692960863298e-02
7.250526853972164010e-02
1.022465219369410871e-01
1.062422182471760568e-01
6.924694882513772465e-02
9.225221255250498631e-02
1.008718732269722196e-01
1.340463688289785793e-01
1.374433271512124355e-01
1.307694111500805334e-01
1.418221614911855943e-01
1.466326939354505865e-01
1.107842829958339687e-01
8.481063632493576754e-02
1.021608777115964317e-01
1.455300345790839778e-01
1.778596033624307848e-01
1.742050911545650060e-01
1.997530856225920304e-01
1.696130971477193550e-01
1.361319433295754555e-01
1.624572263181035536e-01
1.749463923801885257e-01
1.509380463898253588e-01
1.630743287688927179e-01
1.599074523686541127e-01
1.410452749468246170e-01
1.592366896825871680e-01
1.568831523301475184e-01
1.447380832337546441e-01
1.864139709345984386e-01
1.934449948003858777e-01
1.892235979551112890e-01
2.062825413761706916e-01
2.264529880611030332e-01
2.330632084202164112e-01
1.761357768201327056e-01
1.395756143603176236e-01
1.496620816984910451e-01
1.523223894078748197e-01
1.907220564501657112e-01
2.112933379277122659e-01
1.779891681247415258e-01
1.842567779248593107e-01
2.104981330635372905e-01
1.955600052320166649e-01
1.412760306483992756e-01
1.211967576226287424e-01
1.130690033834996638e-01
1.181473986576513230e-01
1.325824668275987772e-01
9.122600144875614436e-02
8.540544275175432354e-02
1.044365995909209699e-01
9.689114577660569438e-02
9.714181304124390459e-02
8.895371180144798218e-02
5.833528085633062077e-02
7.699421205688700143e-02
1.050597374411464391e-01
6.012215257423851600e-02
8.492378695905448971e-02
8.775887663767827085e-02
8.795796361207897096e-02
9.934077383429762431e-02
1.223049814751690778e-01
1.539047426562611953e-01
1.152168902082701257e-01
1.428207972167466755e-01
1.346744904312280888e-01
1.284886684629203413e-01
1.064869381186928088e-01
7.775880567822579525e-02
6.853696248448892803e-02
7.871506037297487657e-02
1.041987045091949809e-01
1.167638486953324617e-01
2.071872796726099974e-01
3.287714326758282013e-01
4.868074165300251277e-01
6.230029402176280318e-01
7.615866691800163846e-01
8.329189525479726575e-01
8.105137029772760959e-01
7.453018994970344036e-01
5.892275149812278290e-01
3.947611243579760565e-01
2.460134363250885692e-01
1.590918528791646913e-01
8.670465614582689717e-02
7.405296500686948946e-02
1.076934036359973312e-01
1.277319238819151215e-01
1.260556332347975705e-01
1.223895682450694827e-01
1.030942742496006870e-01
9.023943945559831370e-02
1.403935721027919636e-01
1.490057103522182957e-01
1.833957988009876083e-01
2.049361289789744800e-01
1.995148476440696261e-01
1.668587231697645501e-01
1.546485254022951228e-01
1.178880486249128112e-01
1.114455479688819528e-01
1.261014089494579549e-01
1.434593767262935804e-01
1.884964932683396155e-01
1.872396311700505744e-01
2.200067407552578347e-01
2.174780441995811664e-01
1.999479785498770312e-01
2.101014651112754483e-01
2.011987775939315659e-01
2.503171353974967261e-01
2.913172997315778834e-01
2.497317992489511973e-01
2.007306705166730376e-01
2.365170784368864632e-01
2.599308481885052036e-01
2.352395921902439291e-01
2.733022120843128233e-01
2.591815641407193005e-01
2.668975809078328321e-01
3.044511529676681150e-01
2.867864924570250884e-01
2.753307438741177671e-01
2.476695517814733460e-01
2.605446030779746680e-01
2.841954642535838294e-01
3.148546356898409559e-01
3.346375008924130645e-01
3.067074013384848974e-01
2.573482062317639096e-01
2.285839779242161418e-01
1.825401447867149030e-01
1.543869648968521080e-01
1.547887672624505828e-01
1.756243325262131227e-01
1.647939193373957889e-01
1.382160171529456805e-01
1.390470063016705782e-01
1.477186177551158830e-01
1.337493904481893148e-01
6.184467089974269444e-02
1.045191532310884019e-01
1.641355284677373794e-01
1.436453219310861451e-01
1.123551130227034289e-01
5.568833089506841638e-02
5.035465655424845033e-02
1.234746765075817043e-01
1.026643052071558593e-01
7.472394661583239839e-02
7.795370593623963951e-02
1.088768917107648809e-01
1.284009606120188052e-01
9.553092851399573593e-02
1.227679323263898836e-01
1.072044465888139925e-01
5.823726543192607463e-02
6.892697784156005814e-02
7.483587646853889774e-02
1.010985067698120521e-01
1.365792337459705852e-01
1.644225621308421093e-01
1.287944760040726222e-01
1.333252326687693334e-01
1.321439374490599172e-01
1.345991457945241443e-01
1.604620603168660509e-01
1.085593988047833663e-01
1.603249514367066086e-01
1.903298420856588125e-01
1.632182998112236549e-01
1.343420795872913298e-01
1.629422807955889230e-01
1.170070478397006591e-01
1.005785285720470490e-01
9.166545484459191762e-02
1.050864870126569650e-01
9.678585064798361781e-02
9.540177086871337586e-02
8.921901852674050948e-02
1.170390954366389291e-01
1.221045607597382038e-01
1.071940919596599817e-01
1.097617950547654930e-01
1.601054506549847989e-01
1.771330384493088883e-01
1.722811132806053025e-01
1.619862156130950082e-01
1.960236887478205015e-01
2.053953050465828212e-01
1.151261644489647573e-01
8.213408104172498225e-02
7.079489911833404536e-02
8.688658161366739907e-02
1.022452950532144605e-01
1.425081488624278248e-01
1.254675090336888066e-01
1.097423257925896484e-01
6.964808152504052552e-02
7.030971256361312482e-02
1.107223829493062528e-01
1.289407527932511788e-01
1.416288692088830126e-01
1.689649348318146282e-01
1.929547143593517422e-01
2.172573487702555428e-01
1.796071435217381773e-01
2.108392417254935647e-01
2.082797606657697531e-01
1.674922172271277043e-01
1.671206351700635362e-01
1.434442019457896622e-01
1.559550241778676349e-01
1.567830838900078350e-01
1.729867017978012900e-01
1.730397586963119405e-01
1.465730583496816508e-01
1.346508649072491737e-01
1.001814383629925365e-01
1.201158286381242002e-01
1.274574454406666446e-01
1.408195295873088115e-01
1.589781734888833786e-01
1.394655088952059252e-01
1.308006854043983203e-01
1.315014289944063941e-01
1.357153965441290910e-01
1.039008590358653367e-01
1.211018930410518168e-01
1.006947577132361882e-01
9.696277006322882863e-02
6.589312786181239501e-02
6.381504410835341090e-02
1.247992014895050739e-01
2.295038295393379557e-01
3.660761698901943140e-01
5.133203856648439478e-01
5.988180397683404710e-01
6.323462049105954552e-01
4.986697797245723818e-01
3.133266437933813764e-01
1.830315022580546735e-01
8.320070387557523817e-02
6.939648260015449099e-02
6.551262117700105969e-02
8.716991747502654542e-02
8.267925125156878885e-02
8.536294772585181767e-02
1.366001206374800603e-01
1.448990034115669734e-01
1.617618363352387734e-01
1.366902547415404234e-01
1.637986247376615190e-01
1.780214383159468006e-01
1.994442589382574571e-01
1.771316081009871035e-01
1.822051431883295602e-01
1.752636675964959201e-01
1.571416537530058166e-01
2.022952875651295168e-01
1.857629484513884655e-01
1.959901400355519296e-01
1.895888281661947117e-01
2.018609149548174775e-01
2.176853035656654556e-01
2.496353399955536512e-01
2.699832722499876381e-01
2.775448462607953970e-01
2.794581314007745232e-01
2.443160393214849901e-01
2.365006462967306766e-01
2.443763065205936391e-01
2.439515621641256682e-01
2.898958748321976975e-01
2.788309597838553033e-01
2.428218481763465553e-01
2.386766720090548188e-01
2.518002317804728385e-01
2.408789882521199521e-01
2.350074277843780535e-01
2.111344813633353190e-01
1.709553326332259593e-01
1.393154061511862885e-01
1.594565904318279714e-01
1.701324142909315940e-01
1.787765079521134726e-01
1.590281617698850736e-01
1.427643391028184383e-01
1.340637080562809558e-01
1.447190848912303651e-01
9.029026825638412912e-02
1.271819638683986953e-01
1.177706871529831389e-01
1.236634275119741222e-01
9.163829791167782401e-02
8.961152719492887497e-02
1.385634535101565312e-01
1.526184877150234542e-01
1.276151495871258312e-01
1.145171562678626159e-01
1.083172163127992249e-01
1.351873475979987749e-01
1.536637897861772017e-01
1.172718944538071045e-01
9.323563906046133942e-02
8.654297929807965029e-02
7.599616036183150236e-02
1.023997807280015299e-01
1.000281854247928870e-01
8.200267294276245011e-02
8.587152899636155134e-02
9.617656840187915890e-02
9.880633312284306524e-02
6.723622401677159521e-02
8.617524097675796635e-02
1.110167788035847786e-01
1.617424639609406078e-01
1.687987983091580046e-01
1.848104787900283763e-01
1.726755202265889411e-01
1.661700602740862620e-01
1.449031138312732447e-01
1.460148140711941545e-01
1.661507610308435301e-01
1.613461656913506848e-01
1.661167757237664855e-01
1.719429262227624988e-01
1.582651718353852432e-01
1.795074897736374242e-01
1.348017813130092946e-01
1.444743168616378637e-01
1.178676175810566412e-01
1.187593739969083073e-01
8.504727556382557507e-02
8.908345292670093174e-02
9.851209052452683523e-02
9.260387517063521645e-02
1.147411813455672669e-01
1.038523422233615656e-01
9.710988699080638775e-02
1.098769003278224909e-01
1.104874435916705921e-01
8.295103666160016931e-02
8.702700584952390017e-02
7.499061859455190271e-02
5.693815511546778535e-02
5.923655168175525482e-02
2.728730907633251934e-02
2.657269288905662191e-02
3.261373162596022807e-02
3.356426130767061616e-02
6.355630632750622344e-02
1.129143678034771336e-01
1.291221895516866669e-01
1.282592164684815406e-01
1.493076413815743742e-01
1.556434360822425422e-01
1.275979652716145718e-01
9.617256570786118786e-02
1.086080258239386365e-01
1.113252802630207566e-01
1.522582304007760734e-01
1.884839611392943870e-01
2.029575069741945681e-01
1.863773978281255406e-01
1.772945369809913185e-01
1.711782764875775520e-01
1.022920153824867368e-01
5.750395313442655670e-02
8.564090984172065268e-02
1.021143634188829002e-01
1.102268710767852211e-01
1.020253301154058628e-01
1.586405272901399433e-01
1.577144257199063482e-01
1.295004856108491476e-01
1.213570815116685186e-01
2.355884011988442495e-01
4.014087300743602871e-01
5.429988990371973356e-01
6.888235946107063024e-01
7.045795096017511971e-01
6.054217237749905944e-01
4.249028493891306990e-01
2.981745756109956957e-01
2.262099327974713692e-01
1.951289063294860959e-01
1.246789566121826454e-01
1.363318485883741604e-01
1.199771856120920854e-01
1.239856258076831586e-01
1.567463511813920185e-01
1.715493142602673715e-01
1.858140736853977626e-01
1.739281551226433686e-01
1.807509621847457337e-01
2.309418046219290921e-01
2.321421578346881676e-01
2.514338117493430946e-01
2.617049475250067814e-01
2.641823275037887275e-01
2.492742400629665567e-01
2.349964861145998896e-01
2.612733754891978788e-01
2.800109860877945667e-01
3.063794920837628610e-01
2.865626251459520990e-01
2.724205266885581511e-01
2.636344308959388538e-01
2.814335987084791713e-01
2.684779645917989566e-01
2.875642385935118783e-01
3.141662726870523281e-01
3.227992998321217999e-01
3.436969727777674510e-01
3.905909604738925234e-01
3.591572058510875687e-01
3.717174969419891895e-01
3.530794225205027281e-01
3.371586039917815469e-01
3.641884156314244558e-01
3.658136775998405144e-01
3.280271855573770878e-01
3.384709122583047791e-01
2.862853065626226878e-01
2.491634288206267811e-01
2.270402973029506111e-01
2.037368675284433883e-01
2.247530896265445000e-01
2.129107985802592973e-01
2.269864925666132405e-01
2.002811107970018933e-01
1.677056147122638619e-01
1.681258425424031477e-01
1.633323613281299491e-01
1.551546264821508370e-01
1.901666324433203825e-01
2.027766814135087414e-01
1.964001915134377663e-01
1.872458013132493604e-01
1.557251394036768266e-01
1.697987694414814230e-01
1.796152800502617275e-01
1.937778813421699997e-01
2.382019342686171881e-01
2.067104803948322522e-01
1.425417006064581549e-01
1.549952417862028586e-01
2.158814094438184783e-01
2.130771191860243441e-01
1.987458404844782422e-01
1.765972497456143875e-01
2.098520190071849201e-01
1.812791549270439950e-01
1.794679565797347165e-01
2.165132041800430784e-01
2.183625008923983923e-01
2.089665415246416136e-01
1.867759296762322996e-01
1.829643927549628735e-01
1.396999143628479267e-01
1.225396231560592908e-01
1.783056404039595200e-01
1.775956878450519749e-01
2.034872930422325643e-01
2.342122214460981011e-01
2.087939141686221967e-01
1.911975605024930636e-01
1.605874521533153243e-01
1.647338028920991848e-01
9.444972024176359615e-02
1.150601875318468525e-01
1.463664470906305692e-01
1.608294339611797130e-01
1.581809315188674459e-01
1.619434006444798180e-01
1.656524764574950070e-01
1.882016065547897354e-01
1.876566147750876046e-01
2.030031868017648233e-01
1.923789133546650321e-01
1.867426831553583577e-01
1.825648806971496840e-01
1.594598109531941699e-01
1.281614970252524244e-01
1.144454368609215678e-01
1.138900802010612973e-01
1.114090818144809203e-01
9.276016584537308263e-02
7.417847021131848684e-02
1.047942570308649513e-01
8.832603252682169614e-02
8.668001682561067567e-02
8.888407989547132682e-02
1.160201136537070549e-01
1.251331203666858072e-01
1.569165115530160304e-01
1.694875366730537736e-01
1.275622255215397294e-01
1.175108323394223192e-01
1.702020409702587889e-01
2.059860522971980745e-01
1.833191539370304657e-01
1.509252925783175492e-01
1.357083906347310853e-01
1.667356115382065407e-01
1.586820027603524919e-01
1.342653822607863812e-01
1.719623062686268522e-01
1.888567281182974844e-01
1.696764371658478487e-01
1.893217331339632215e-01
1.243166458549327946e-01
1.286752770978975280e-01
1.893838458944366865e-01
1.561946640495622263e-01
1.130716318312514068e-01
1.066951725537102352e-01
9.797942647761140322e-02
8.825856585771459095e-02
9.778558254610633660e-02
1.301862736931364561e-01
1.974671272339720285e-01
2.544397663987151281e-01
4.243860767366042230e-01
6.276931263817905338e-01
7.116906023897174860e-01
6.699200969778770220e-01
5.949224642339749902e-01
4.299776481699358333e-01
2.629652317626079427e-01
1.576916484757111547e-01
1.533271356578200795e-01
1.317148724413411132e-01
1.202008978280218465e-01
1.424763449992642594e-01
1.729893858083663138e-01
1.201751173870824890e-01
1.105740909306894559e-01
1.064102313207065664e-01
9.918423913958403226e-02
8.118814769717572211e-02
1.170637701642137651e-01
9.087432293647981774e-02
8.952746947093059848e-02
7.637460384594876861e-02
9.503480778960766984e-02
1.353928642309748520e-01
1.886576679768982578e-01
2.066849932055024597e-01
2.003650169350371657e-01
2.461504530199457585e-01
2.630208358909871258e-01
2.528625493529472745e-01
2.496261630348632909e-01
2.748613986234767492e-01
2.527468989723777870e-01
2.765406535526737652e-01
3.018833624949446293e-01
3.375952640668317684e-01
3.480983940517966557e-01
3.348770796677196238e-01
3.157728542697236795e-01
3.087874972774186100e-01
2.830877952357480076e-01
2.950841749243922063e-01
2.678184594273773644e-01
2.634619086562544621e-01
3.010059860046665481e-01
2.796899051839797368e-01
2.342687166734242488e-01
2.404775970976377464e-01
2.457737419049111083e-01
2.186029150633224116e-01
1.686912223986667403e-01
1.397322309012125896e-01
1.313306230739075542e-01
1.219769540786460882e-01
6.254680086091767011e-02
9.048266659507213372e-02
1.180199526647410790e-01
1.003392833457248251e-01
1.221897927025305808e-01
1.171446483427262958e-01
1.362549366606549961e-01
1.469835314539038318e-01
1.249075972366716913e-01
1.427878906930319658e-01
1.449886007338695992e-01
1.676842669286648380e-01
1.437661051596709760e-01
1.566081705780648647e-01
1.112591433863220625e-01
1.498650452474369899e-01
1.446316850828217593e-01
1.315224047090981785e-01
1.118576769642059682e-01
1.467777871505668297e-01
1.052490488652904899e-01
3.875786315892280898e-02
1.217872255105604540e-01
1.437006592517164894e-01
1.508614846866589421e-01
1.324435599326413693e-01
9.593712129173176395e-02
6.664672548299618859e-02
9.954515086505409671e-02
1.063498131956958220e-01
1.322728688834304001e-01
1.480447736167165018e-01
1.289927419511747719e-01
1.476876740449101777e-01
1.288084800503941363e-01
1.501252121029197917e-01
1.081990625557152363e-01
6.808265812728810096e-02
5.711905266284480337e-02
6.232010081553567005e-02
1.030078185065571861e-01
8.468820213164376942e-02
6.786795080716355455e-02
8.180223293483887548e-02
8.120220698940643078e-02
4.110248116683181546e-02
6.779722160792418795e-02
7.207555602982278209e-02
6.746684372974177946e-02
6.345404327063433603e-02
2.997464637676226090e-02
3.415748969773090699e-02
4.119725742169447202e-02
4.813210735090706766e-02
2.646459604281229533e-02
1.433202700202043656e-03
3.353341914568502141e-02
5.641810211971216155e-02
9.449225803776353794e-02
8.511605098662131108e-02
8.794109062977299718e-02
1.046130524766587938e-01
1.002560939461667605e-01
1.176400723383244362e-01
9.685911687971543449e-02
7.032811775935865484e-02
8.602980682344925356e-02
9.297425978508393196e-02
9.641722623935511383e-02
1.017581678533296952e-01
1.297906995433239230e-01
1.033143696807365952e-01
1.462665213380565654e-01
1.615704849143304034e-01
1.415489315943023463e-01
1.332959870115699164e-01
1.526570064945226568e-01
1.982545141051011151e-01
2.391550656717606471e-01
2.023761114069980438e-01
1.636403265662419448e-01
1.525368936993077851e-01
1.923335553187670022e-01
1.591221663471325543e-01
1.049538712173921917e-01
1.127401254514436568e-01
1.108757867683808351e-01
6.639781110641698736e-02
7.411412564137255521e-02
1.272823235047730872e-01
2.129283698845677586e-01
3.529258371318211296e-01
4.827677138447958871e-01
6.307990564963130709e-01
6.616312752531116059e-01
5.797173086079613347e-01
4.356719648710851711e-01
3.126788057720991110e-01
1.898387564207613398e-01
1.568085910077685330e-01
1.795742817269458114e-01
2.171220273176933391e-01
1.899850749087985124e-01
1.866883896904196760e-01
1.676844935837113193e-01
1.725855987293349048e-01
1.513982382812795735e-01
1.779040440558151415e-01
2.096799394278481832e-01
1.575674275121946855e-01
1.705362521474071413e-01
2.056840624490358094e-01
2.050416957925522143e-01
1.778873756881595158e-01
2.195523854792273410e-01
2.081618309693924196e-01
2.141884414870663389e-01
1.750022728729652144e-01
1.893276504223074252e-01
1.731422721592180691e-01
1.675580397697540580e-01
2.087711817042613438e-01
2.040522232786811108e-01
2.324876319636608735e-01
2.584617256296548038e-01
2.844996875035146200e-01
2.694334193312284409e-01
2.640123954386496830e-01
2.795665303876972985e-01
2.288742067078370357e-01
2.498477385972313891e-01
2.775548122525319239e-01
2.615793106716685079e-01
2.633404524683121140e-01
2.517849548014136074e-01
2.243829352628381180e-01
2.333472528970638449e-01
2.027168583092314180e-01
1.787712223952729051e-01
1.730898847050648948e-01
2.064853993136122612e-01
2.031900494335290852e-01
1.989048060505388404e-01
1.733645546182369102e-01
1.698465480328332222e-01
1.241263849784774997e-01
6.411386066019447716e-02
9.150981747269802680e-02
8.918689590904949061e-02
9.214370632678538231e-02
8.819844231497840636e-02
1.057662588035663820e-01
1.148362402475005817e-01
7.734380393121745301e-02
9.063339750712595677e-02
9.599074168703722321e-02
9.289726822568114550e-02
6.025213381142657809e-02
7.621718658494329446e-02
9.590628471058033899e-02
5.392909241192948844e-02
4.587377416220999454e-02
4.152773271890154716e-02
5.267370131533313099e-02
7.721616362349653651e-02
1.009045367080172173e-01
9.860933818458650357e-02
8.443976340012815385e-02
8.190244011308660255e-02
1.007998192323541348e-01
6.331213484021512572e-02
2.897540617382188266e-02
6.579993810137016452e-02
2.846303935784808004e-02
2.490953881104836926e-02
6.257082376627057241e-02
6.746053086435874202e-02
1.012893349336352056e-01
5.765660088999948613e-02
7.634952009148582297e-02
8.887774119174707277e-02
8.495987700332428838e-02
8.630878873329300704e-02
8.672871684153039828e-02
6.752737457710036861e-02
6.769793188593280220e-02
7.743833169445724085e-02
8.377769775971959099e-02
1.066405610216501210e-01
7.701200292488907806e-02
8.920182856107207459e-02
9.425580107223542614e-02
7.792803497801335799e-02
3.835027923063019650e-02
6.681353508632954796e-02
6.298022848202244894e-02
5.820045290939621085e-02
1.217856301985310863e-02
2.318761625532821113e-02
4.537774538745259489e-02
7.451482294775400861e-02
9.426996264186005003e-02
6.997649949297747585e-02
7.682145031421215575e-02
8.572734058180206396e-02
6.648986879999060906e-02
3.395351329371405075e-02
6.439269533883962282e-02
8.288381741936758085e-02
5.260167329027655436e-02
7.246177083466619206e-02
8.717021606992331195e-02
5.371111959246781253e-02
4.695638963136653660e-02
2.455616935622212393e-02
2.577860713163660639e-02
-9.170011793203022843e-03
2.820386901186439088e-02
5.205408314436440337e-02
9.665720408491047799e-02
7.670495165706213425e-02
9.436105243752782035e-02
1.326036536716543313e-01
1.544022593206320904e-01
1.367983116276299260e-01
1.142677471060603855e-01
8.178785416516773377e-02
5.326356114587701973e-02
9.969562636514914256e-02
1.119698796443351352e-01
1.173551650389675766e-01
8.121133849519515668e-02
8.229688335490040196e-02
7.959783824151617226e-02
9.686324831088773124e-02
9.840663435990303076e-02
1.636283119507538353e-01
2.774232591022234851e-01
4.534725147569393378e-01
5.672405063197107911e-01
6.327542768729071954e-01
5.635435638063603925e-01
4.272887932065004835e-01
2.987039666578568120e-01
1.633571520215426343e-01
5.362941011907042255e-02
3.499113541111609910e-02
1.320060957921441458e-02
9.601034722090992513e-03
8.554033275508565737e-02
7.728716007334192339e-02
7.279085025244649843e-02
6.334235695229725738e-02
1.166582323671254001e-01
1.774729413726507110e-01
1.432691767261773941e-01
1.091057495295817553e-01
1.031649835733702558e-01
1.248938221220923794e-01
1.865714984573503821e-01
2.107982458261453973e-01
2.039166659011102667e-01
1.902802138144235600e-01
1.984165775832476553e-01
1.912671834184271336e-01
2.284771093344462045e-01
2.216051068368140031e-01
1.966232400810091485e-01
1.929715852851830726e-01
1.277387108673576355e-01
1.576886719133815395e-01
1.493676592906680312e-01
1.382361884910748850e-01
1.713608734371630526e-01
2.058410147554309566e-01
2.365371624290093788e-01
2.487592844834307926e-01
2.171731753061364734e-01
2.008312651730267406e-01
1.856310341920108242e-01
1.848516955833079956e-01
1.886352450037963591e-01
2.191974926354758879e-01
1.978642687062036332e-01
1.654310098608989255e-01
1.789366604567161900e-01
1.680512974862984066e-01
2.196633076833837683e-01
2.178654062486723997e-01
1.776985599593764453e-01
1.270455429011197179e-01
9.695134447662434596e-02
1.172235357569665903e-01
1.302077228362094607e-01
9.214568920000365537e-02
1.104910717178563540e-01
1.147822091250817605e-01
8.764251634935742163e-02
8.250702468525639155e-02
6.946585975920371858e-02
6.615821546392208763e-02
9.621422584894342989e-02
7.536305505003547400e-02
6.675328680070077847e-02
5.397255015830788177e-02
5.735009345032303363e-02
4.303690102078702728e-02
1.236520393344235635e-02
2.163505728898692387e-02
6.263281071682069712e-02
5.190735634894228651e-02
5.526755839479638444e-02
5.389295487207684809e-02
1.961170658171518255e-02
2.853627585031647679e-02
3.072190884409269074e-02
3.400113836069194179e-02
3.738992318164761908e-02
3.890252908773481760e-02
6.882006517383382205e-03
5.751845555410689537e-02
5.106887990124731741e-02
4.162991681186835324e-02
6.965743124222874283e-02
8.485401180833007651e-02
8.218962284244288319e-02
7.173225742630634505e-02
7.395930047849458289e-02
6.310489117118753266e-02
9.095340933259805916e-02
5.217533296539585141e-02
1.289099431984628841e-01
1.356121953575653294e-01
1.461906315900325382e-01
1.537698697947729731e-01
7.530269063133628038e-02
8.111969005110143682e-02
8.449764262513707880e-02
7.048576798873981697e-02
9.509482905291187504e-02
1.331831755931179861e-01
1.097283548631663302e-01
1.326156809509568268e-01
1.570608477160326810e-01
1.611271020651439678e-01
2.860300679920361189e-01
3.753687945432262474e-01
2.838682692602895186e-01
1.385658365109834755e-01
1.153596111431039739e-01
1.239161834649172150e-01
7.776188090375549256e-02
7.805445689438128554e-02
8.032137380905851609e-02
1.224543776257549788e-01
1.077372968476318499e-01
1.401137445083643351e-01
1.822163780108080611e-01
1.856476443915711649e-01
1.653931755202426579e-01
1.676621854614726292e-01
1.570776858682809141e-01
1.498103497830904074e-01
1.597395356165257629e-01
1.534109268421180450e-01
1.322665360617102659e-01
1.022233603173091088e-01
7.764694569894307896e-02
8.048551345520504885e-02
1.109515034337514167e-01
1.471165642190402911e-01
1.087052266955344515e-01
7.495445525648046503e-02
9.000648122511953342e-02
9.053377835307580002e-02
9.489624444780950241e-02
8.746312065050634854e-02
7.446048796820702032e-02
1.180123136632816594e-01
1.474891172802198502e-01
9.011516179849775321e-02
1.294045328749815482e-01
1.203901266576749424e-01
8.791111662226933077e-02
1.213133147460625366e-01
1.427471375704574830e-01
1.392891899256959443e-01
1.205347135715679752e-01
1.420188966876315129e-01
1.413786565695574482e-01
1.332073791231644933e-01
1.300216941455023811e-01
1.230732253088511474e-01
1.380333176130934536e-01
1.205838897040198976e-01
9.756191032146696585e-02
5.078714082552559378e-02
6.843934512246646618e-02
1.202294141541935812e-01
1.065919706001627609e-01
9.734363555682359892e-02
1.134641819021546261e-01
1.246691743210077141e-01
1.212837444907102491e-01
1.350913734325605020e-01
9.467804361214404718e-02
9.826517330094161617e-02
8.919157578456954338e-02
9.921314239830809900e-02
1.212341190997774931e-01
1.155676234073776537e-01
8.656055146862412508e-02
8.368645738841411219e-02
7.054321867854269901e-02
8.551945502446350877e-02
1.009881684109394662e-01
1.072293198955977800e-01
1.209953428632303818e-01
9.173947184120459508e-02
1.148279587118497813e-01
1.039385788434571134e-01
9.532621541148302013e-02
1.141149067510278392e-01
1.127079380286044041e-01
1.040258011100636676e-01
8.483236148853262604e-02
6.411158858035138908e-02
5.652784823131964259e-02
9.624252435387840865e-02
6.808451212247934592e-02
8.996954476799168265e-02
7.121331064542749112e-02
7.306607175868984339e-02
5.777683161033354137e-02
2.212313454099543164e-02
5.690634926615683459e-02
8.582256230120854923e-02
6.898173712102274868e-02
9.183041339097282318e-02
8.413736880580532929e-02
9.309507319769402822e-02
1.477510698124083477e-01
1.406351572987396548e-01
1.199685911948371875e-01
1.156898333182979216e-01
1.330093534524378063e-01
1.695327495842151033e-01
1.296551746648547387e-01
1.752409422973244535e-01
1.589743595912275764e-01
1.541496074967992069e-01
1.140389829105857566e-01
8.131207910565524388e-02
1.056673516673999197e-01
3.550477372317055458e-02
8.318864856506839878e-03
3.435977036393613598e-02
9.402483258819183121e-02
2.058093925501545685e-01
3.284098972328770571e-01
4.522227060364988338e-01
5.749924787718808661e-01
6.217106292059190187e-01
5.846292765368965583e-01
4.416875105298482262e-01
3.329072146599293958e-01
2.072599472207543869e-01
1.006196585432742596e-01
8.291417223020852711e-02
9.667293837426191305e-03
1.708445869664325378e-02
7.900510455622615502e-02
6.694128251310388356e-02
2.172037987817129756e-02
5.015924711385947449e-02
5.199642050845551533e-02
4.941449378378122426e-02
7.521128462429607642e-02
2.473416359820224120e-02
8.269347596211756857e-02
9.520790573541934587e-02
1.289117551241515391e-01
1.744373972799947992e-01
1.934321680143451516e-01
1.397548347839564498e-01
1.126205117532702860e-01
1.284398266861442317e-01
1.508387062781531562e-01
2.039152958723103315e-01
2.005710339055965241e-01
1.895901214803391022e-01
2.270578679764922170e-01
2.535047667954549167e-01
2.514038389610436797e-01
2.645764334910130633e-01
2.231150742599235792e-01
1.910944133600442352e-01
2.592988111542036678e-01
2.896698877054739163e-01
2.617174755742047165e-01
2.895950602448499334e-01
3.009896518387446540e-01
2.652908447242576240e-01
2.610904341813030660e-01
3.089281418408659774e-01
2.770547794899773097e-01
2.528034348459172187e-01
2.748775402575421856e-01
2.460858876646959403e-01
2.629825385555427109e-01
2.522861428084456348e-01
2.452428291739478239e-01
2.195189875025109760e-01
2.058977097084722097e-01
1.731501595248678416e-01
1.174630064506084204e-01
7.834096938487108974e-02
1.110455005811533391e-01
7.416979745517457423e-02
9.314596148815769416e-02
7.018217220790520794e-02
7.228108835349419947e-02
5.933027180479730212e-02
8.772629908830402445e-02
5.717459976763021590e-02
3.589922108472630435e-02
1.352618595726040596e-02
2.030209897293130950e-02
3.480723355257258483e-02
7.455840119835592528e-02
6.676713307331889891e-02
7.208278934154441209e-02
5.502047192424100452e-02
2.947729752201212750e-02
3.589438316026878628e-02
6.739726432500442455e-02
9.083139908777998484e-02
6.675905788676277097e-02
3.175751015485560325e-02
1.111684310939006770e-01
6.267963367607171099e-02
5.216314456095841323e-02
1.002788986975597652e-01
9.254311531490069798e-02
1.079591107101233460e-01
1.099181768644184876e-01
1.088557370056325024e-01
6.937311284994870930e-02
1.342094643692409439e-01
1.434559917784085092e-01
1.088141613568527344e-01
5.691339693563722546e-02
5.729296640745848435e-02
7.287399481525849709e-02
1.313596865042156725e-01
1.448641748109119332e-01
1.205382761730726671e-01
1.325921654680847772e-01
1.388074087736290707e-01
1.064512453614933074e-01
1.154570468394522376e-01
9.355476648010961627e-02
1.173068508471152571e-01
1.671057259304155052e-01
1.487016319887257132e-01
1.319219405384052524e-01
9.573659872714035401e-02
1.144658464970866874e-01
9.958471817364174250e-02
1.366169199234165965e-01
1.455922973292201050e-01
1.579964610392773083e-01
1.117278824697584827e-01
8.607391216498759545e-02
1.016555427958635988e-01
1.274735996712627883e-01
1.092324190182404342e-01
1.145430975698651377e-01
1.085975735542434456e-01
1.212800854209834245e-01
1.417392502967531331e-01
1.609335210698224494e-01
1.768625485467480163e-01
1.253322979871496767e-01
1.305320384733813788e-01
1.571885767727709826e-01
1.888551824831080084e-01
1.968176177116971459e-01
1.914167919003724738e-01
2.242226738516458484e-01
1.924597215008203854e-01
1.286614440722110009e-01
1.113160605620969607e-01
1.046470630480177688e-01
1.102599271548912185e-01
1.194981829363036679e-01
1.212929291342088184e-01
1.567825401372129335e-01
1.978510171152599861e-01
2.127870345654019890e-01
2.446004325076770181e-01
2.064049768595539458e-01
2.391334607815390201e-01
1.776197537778136937e-01
1.607070367150227885e-01
1.251880066658134227e-01
1.365248125255200673e-01
1.321528288884724345e-01
1.124187371670682389e-01
1.035041735521796818e-01
1.029191624867347443e-01
1.177622576834530255e-01
1.301419733477009733e-01
1.905094465680235993e-01
3.223817127457938581e-01
5.069268131184002657e-01
6.154771388164503865e-01
6.878925094350177849e-01
6.739709761327791204e-01
5.392267834333439591e-01
3.944659509283474086e-01
2.434152422250893122e-01
1.707855347589823380e-01
1.183560661173925777e-01
1.512923273933180213e-01
2.105859153109256032e-01
1.745600043985418015e-01
1.566878299308605560e-01
1.848918840339975889e-01
1.987438364610362718e-01
1.409521061376447226e-01
1.555849652678973627e-01
1.683867553510619841e-01
1.855644596365989829e-01
1.371184619162856277e-01
1.359811116565734224e-01
2.047858007875789921e-01
2.229181621434902505e-01
2.166113309726732383e-01
2.187109231116086128e-01
2.162518962433480629e-01
2.511187653859535684e-01
2.612441118119737116e-01
3.012936382264048696e-01
2.607727598854069351e-01
2.399692322995742588e-01
2.586789038185570155e-01
2.755696382847638848e-01
2.268034506716588572e-01
1.979284502711629035e-01
2.677034371038189420e-01
3.030046737321427375e-01
3.152657350067624153e-01
2.570070992229406270e-01
2.760807854917572413e-01
3.242467317676386296e-01
2.703251015815560376e-01
2.431125254010177428e-01
2.878814128288293417e-01
2.705293338812952975e-01
1.978648617044082014e-01
1.338672149181097670e-01
1.284151692142660173e-01
1.279932486704148109e-01
9.883444968014060139e-02
9.567098070075633065e-02
8.639131500763748417e-02
7.111969227114364744e-02
7.511393095790958041e-02
3.514356604932047240e-02
3.927057125258917591e-02
1.106507246519121412e-01
9.906105849347421333e-02
9.235343445764385151e-02
1.035963390750816587e-01
1.514804753312074537e-01
1.320019816398407264e-01
9.700207365850629926e-02
1.231143307718453594e-01
1.158801283452853825e-01
1.057856935203375787e-01
1.116306178017898165e-01
9.719191956396547316e-02
9.490273158655021524e-02
1.267849137793562175e-01
1.219807107106329197e-01
1.460898632490453264e-01
1.038425030331571464e-01
6.608179716231799006e-02
2.579083424419906234e-02
-4.404549644998714819e-03
4.178937868148927676e-02
1.936891666586507132e-02
1.108407037359150638e-02
-2.775894173713613911e-02
6.709371042498968318e-04
3.158881301313900408e-02
3.228535672467938017e-02
3.794558673100630747e-02
4.689343618636696021e-02
1.620903070073709262e-02
3.594112021452090105e-02
5.192950038356484999e-02
9.331573196968473427e-02
1.205709317865695518e-01
8.502003426266217800e-02
7.842179340459322356e-02
1.971449244902938325e-02
-1.301293481858596668e-02
5.199187899026542353e-02
5.219640191417552338e-02
4.435438911057430766e-02
5.290324297935650871e-02
6.780839893963749865e-02
7.726193036551362581e-02
3.252165372176120395e-02
8.687721033711653940e-03
-1.430645782513242925e-03
2.134081479895270916e-02
1.203651059807905876e-02
8.890869725790677414e-02
1.449335171634669461e-01
2.865896339402701498e-01
2.798972655912477236e-01
1.275447836856732908e-01
4.678330474529853594e-02
4.239546829080045875e-02
3.185947010592987683e-02
3.684928041983137614e-02
9.828941252563733189e-02
7.198231202697105702e-02
7.486477955890792624e-02
9.600188354120300915e-02
7.882902355987990439e-02
7.714836998371819854e-02
1.412165393176232076e-01
1.209382667341231399e-01
1.367117721421328702e-01
1.628387080241622820e-01
1.874881681192445970e-01
1.915782854708945881e-01
1.605385153562485789e-01
1.637260899451704610e-01
1.466338750694938242e-01
1.166818494916660454e-01
1.151002154566658775e-01
1.089962455949707587e-01
9.496127787112706997e-02
1.441989252872811489e-01
1.324965241363921242e-01
9.426195475864611317e-02
9.760186862597701463e-02
8.082202528219173399e-02
4.640805991786139950e-02
5.399786144086624051e-02
3.855070115147415932e-02
5.530947709176525784e-02
4.957963028319273963e-02
3.751746917384302105e-02
-1.006781448437651938e-02
-1.336369538294775172e-02
2.597423731050332862e-03
6.011852934737910853e-02
4.546460647903557972e-02
1.298287341743283030e-02
2.040784294669192867e-02
7.139817926060791631e-02
1.052133973211501761e-01
1.090816262790927776e-01
9.879007801085001872e-02
8.180575791216956882e-02
5.731525063266188630e-02
8.527023942159928094e-02
1.442740507471002021e-01
1.596296734403109263e-01
1.098941825586741139e-01
1.004100097376218054e-01
9.186041061767802329e-02
9.947778994877837233e-02
9.864441286701172706e-02
8.454117711956078696e-02
7.596880354134308289e-02
8.677426797888077026e-02
9.823323678151564542e-02
8.526666579804560719e-02
4.728372705403693921e-02
1.001421072832420212e-02
2.905572852413355889e-02
6.616469594434974677e-02
9.842318309485791061e-02
1.224875152370283327e-01
9.466059558793235573e-02
1.017136339254303690e-01
1.191866804844647493e-01
1.011418132331893538e-01
9.153850953626871401e-02
5.343656530428850943e-02
3.629415853437508582e-02
4.141434690377271410e-02
6.125763547843442181e-02
9.190360808659524261e-02
1.232919193480302433e-01
7.018108632698177862e-02
8.552685965988379713e-02
8.551451930120192169e-02
7.966841111972852718e-02
6.189974620500395680e-02
3.967479732971816719e-02
8.643948038026733061e-03
2.322642040895380594e-02
3.270832708458982357e-02
4.532581432201043120e-02
4.219721909065732995e-02
4.897814915544806275e-02
7.135802594533588450e-02
7.000502325805402215e-02
6.594203353880140339e-02
1.096279706980203827e-01
9.996053209420698027e-02
8.446493894889402221e-02
1.036493902150204399e-01
1.068774775552500389e-01
6.764552346153744622e-02
9.618196453711773397e-02
1.214890592314873397e-01
1.164898688765084733e-01
9.450106954562506600e-02
9.965881205904573992e-02
1.062391116935588742e-01
1.254049127979361133e-01
1.020614951302699913e-01
7.764870475948024153e-02
6.682349956119343348e-02
5.849535978948155329e-02
6.561982269595126316e-02
6.659794444846088568e-02
3.434020131970474260e-02
2.851941637026371781e-02
4.636641974930812149e-02
5.281592999238701736e-02
4.250164090042209131e-02
1.532430087013442188e-01
3.150094881094486210e-01
4.843273806675914006e-01
6.210135637560197930e-01
7.643319592933462969e-01
8.202359434671241400e-01
7.254034825099183736e-01
6.165090695241435270e-01
4.404937493918087976e-01
3.314536941949628446e-01
1.874590898378325765e-01
1.005183223263469150e-01
4.976720329431955081e-02
3.797281913744062626e-02
8.570621198034301946e-02
1.028892534249890578e-01
5.882195432165634313e-02
6.202626474582017407e-02
7.937054074256889857e-02
1.093352896789184930e-01
1.139806826437229498e-01
1.128264592484188172e-01
7.766995158001216426e-02
7.992458640035648987e-02
1.221174851485527513e-01
1.319600418605806347e-01
1.413434307062600981e-01
1.587429768812991804e-01
1.401921060423878540e-01
1.100380834808478703e-01
1.097503450114952483e-01
1.388626627734943497e-01
1.832591031132360659e-01
1.975801739477924257e-01
1.881433387301187643e-01
1.559908035672487592e-01
1.372573989347612988e-01
1.713489378784686101e-01
1.886516358826845485e-01
1.841926042920724593e-01
1.446643354277769022e-01
1.839883780310521688e-01
2.150989543247333047e-01
1.889078396465193044e-01
1.711645265328879117e-01
1.810808040305037780e-01
1.476668949160088173e-01
1.704986152201444505e-01
2.294541177325760684e-01
2.576238436752693040e-01
2.348298868477774470e-01
2.138711010026816406e-01
1.899079513422546328e-01
2.017603969651264040e-01
1.988856376702733408e-01
1.646569552448365337e-01
1.459541376479290553e-01
1.458330866870542475e-01
9.852006623633305371e-02
1.137509649986885168e-01
9.738449338733506933e-02
4.113911051701638066e-02
4.377025046961664778e-02
2.943891529826984932e-02
1.779973484835203901e-02
-1.238050872120657897e-02
1.056327963005174175e-02
4.488490549087182507e-02
2.667828426039166312e-02
-3.896159091047379786e-02
6.143191054434643528e-03
4.823493571758040444e-02
6.725238006204520280e-02
4.372961739801148329e-02
2.311541333229345796e-02
1.360794474233588403e-02
5.598863380832041353e-02
7.401165670198772695e-02
6.187852843091956601e-02
5.225144721461223024e-02
4.787414437561661462e-02
2.733545422223026405e-02
2.638658105248776337e-02
3.512320994717536143e-02
4.881988848877125142e-02
4.764855123193199177e-02
4.841436850911257778e-02
5.617910969830949841e-02
7.548269286612870055e-02
4.398567219724187904e-02
1.418124575923446207e-02
4.404393729022830495e-02
4.775069250750912930e-02
7.296433401654679740e-02
4.030368555963532995e-02
7.075904718911016356e-02
6.692712301377877482e-02
4.934752408576972144e-02
4.830860893546823354e-02
9.926732399039125965e-02
6.172068473341443817e-02
4.318337851256792703e-02
3.712293468833759852e-02
2.698591840690727633e-02
1.795221774633476430e-02
1.284656995535925217e-02
3.449787738948609933e-02
4.515031733203087039e-02
2.256454481121147881e-02
-3.399881851872094130e-03
4.217731728617374332e-02
4.995530096685164845e-02
2.140189351786961347e-03
1.877610110702442048e-02
1.605707763637612140e-02
3.385337366238336254e-02
6.857732991913689791e-02
7.070796143821102275e-02
2.389643293615189429e-02
-9.618898040469420208e-03
-1.900219261182660435e-02
6.303951653101325103e-05
1.998587867507112259e-02
4.562569996294563168e-03
-1.520281392477827731e-02
-5.876343216215276777e-02
-7.403578113277314854e-02
-7.840750633275463122e-02
-3.920831897893631290e-02
-2.980140368753605995e-02
-2.622224355064332879e-02
-2.310835224285948120e-02
-4.117059318999660711e-02
-2.977893466062891958e-02
1.073110736115698294e-02
4.373354305116411433e-02
5.912253264083554977e-02
6.668567799293272091e-02
3.302108372059321673e-02
2.832801957093569051e-02
6.673993188897098250e-02
5.158303605815470205e-02
4.778276986847613400e-02
7.772437491256416198e-02
4.180936172724290106e-02
3.351125990081964268e-02
6.705534969180640403e-02
1.117849161698652033e-01
6.796846955526170131e-02
4.585221471794935499e-02
1.359093944512965169e-02
3.386391547770692401e-02
6.832868796019681001e-02
4.351490648116877746e-02
7.647881680975233964e-02
8.233116130011149114e-02
4.555453927702434597e-02
3.974516617600974688e-02
3.707120648378236377e-02
5.762286584847294002e-03
-1.548941531705358421e-03
-1.880106352248454848e-02
3.393623167845998684e-02
1.318695289329205877e-01
2.329605646024046350e-01
3.846884633022282785e-01
5.344043048011888342e-01
6.311221599941121418e-01
5.392662757942443541e-01
4.137876590737430416e-01
2.255511903162912835e-01
7.055559918621059912e-02
-2.787620087720658890e-02
-1.348273401602442800e-03
3.927786215538078135e-02
3.614105159691538560e-02
1.800456745564238403e-02
2.269732532108414969e-02
2.414694303986822388e-02
4.425737376789941335e-02
2.535361363683022451e-02
1.074928629251348244e-04
4.166578545878898976e-02
6.834612133237943921e-02
4.764371104498506260e-02
7.350663708971218180e-02
1.183970257084254185e-01
1.240595510363680098e-01
1.100247485348319898e-01
1.648360877941790203e-01
1.335580679828092809e-01
1.401287101350225384e-01
2.080057380204816952e-01
1.920418779791402686e-01
1.380780987526808445e-01
1.621573627082645852e-01
1.552875325356904146e-01
1.899849914888584179e-01
2.156226360434697342e-01
2.475564177266506571e-01
2.689414012555847444e-01
2.532852883263921329e-01
2.499036908946235258e-01
2.438785259395192251e-01
2.351076862563388770e-01
2.532735690154658825e-01
2.278847696040124937e-01
1.948984022172852160e-01
1.642181199785988643e-01
1.732579452103547857e-01
1.599610914897621750e-01
1.498230686771381548e-01
1.193618817137966776e-01
8.474027452850606268e-02
9.401859146420327162e-02
5.551536083027014401e-02
7.246845530696818805e-02
7.986903295467243091e-02
8.954085623850709108e-02
6.118148299590846911e-02
3.384355505481158322e-02
5.701654862045582584e-02
7.130255492436080034e-02
4.902255713944712878e-02
6.812305210612520923e-02
7.951327445916632486e-02
7.480950812362020808e-02
3.736966182164129513e-02
2.642720942337063034e-02
5.200758839343317536e-02
7.523447061628063537e-02
6.623023041372994024e-02
4.056765545955816343e-02
1.961568926441464855e-02
7.529899125037163576e-02
9.237230078923244769e-02
7.201603738292997048e-02
5.603682138529426926e-02
7.345504432948206375e-02
6.878226202975515347e-02
8.700671257758021970e-02
1.047479987510499672e-01
7.217764619290303885e-02
9.559218909096943440e-02
9.587016687853613939e-02
7.444846052350297116e-02
7.876194515200599100e-02
4.501110280782330553e-02
8.277679750436867101e-02
9.548293356396451992e-02
1.021619535756061459e-01
6.173642819022063383e-02
4.191920931652599880e-02
3.137925964847126242e-02
7.073583136685504535e-02
8.507414936274561301e-02
7.808605609218377541e-02
4.425878477282589596e-02
5.335606583017454135e-02
3.167766989054457416e-02
6.631529211566303261e-03
7.863091743982836279e-03
3.642290248264479918e-02
2.888534811199326702e-02
2.412732728122087000e-02
2.696444876314185723e-02
1.896904095871659868e-02
5.349830488430726283e-03
-2.817040539620262185e-02
-2.829467608452157501e-02
9.048829397239749328e-03
8.105262383650832514e-02
1.980122375988186134e-01
2.177965667497072377e-01
1.088705479350155908e-01
7.971593261688753040e-04
3.967657273871105783e-03
3.635513985723270308e-02
3.739579290049439841e-02
4.973597483927923169e-02
5.726514325237995473e-02
5.255387367803194404e-02
2.683199304977519628e-02
6.310388284209630938e-02
1.030043384094175285e-01
9.543028699869424147e-02
8.170495832666679892e-02
5.057604992030632907e-02
4.664870968896397962e-02
7.568713659028988849e-02
1.138826469785797352e-01
7.711627561995693103e-02
8.301076326116321735e-02
1.252837496163401454e-01
1.265721752991724736e-01
4.082267639929734043e-02
7.867468323178961054e-02
9.355020938753691451e-02
1.098427855408319609e-01
6.751810153068461828e-02
7.220815200455511784e-02
9.315803971894226487e-02
1.134770497340103212e-01
1.326571798458225371e-01
1.360553031582071581e-01
1.080271191520104646e-01
1.209968206265901736e-01
1.194857327186989171e-01
1.364678846927387390e-01
1.135381377802926611e-01
1.145221066784161273e-01
1.046594767385040925e-01
9.229276911476988476e-02
7.396406115894657574e-02
5.496948759407662560e-02
5.330056640421931835e-02
9.892156979518663962e-02
1.134932235455397287e-01
8.601767585359297585e-02
6.962270910845727578e-02
4.188382667783988739e-02
7.709277595363270286e-02
7.229528752099859124e-02
6.357456395621645384e-02
8.804088380708366413e-02
4.361169545850880624e-02
7.289825495318266735e-02
8.377457962699165483e-02
7.570632570716734344e-02
8.272945026101768962e-02
9.397515491006901145e-02
2.082879713004164024e-02
2.043400238776772737e-02
3.119333469297330685e-02
6.424467262986788274e-02
9.926060669300529327e-02
4.448790801085981961e-02
-2.167857304732068169e-03
-1.154891522035836338e-03
-2.589095094724366830e-03
-1.156848734681190094e-02
2.799415447338143154e-02
5.455200046084543453e-02
3.737352320893198160e-02
-2.323332923788995474e-02
-1.745452225556047565e-02
-2.230540736134463409e-02
-2.143332611508533270e-02
-2.294306544772942158e-02
-1.960803191230184317e-02
2.671347950145777639e-02
3.919942073603401717e-02
4.720123583212103291e-02
2.038360894670811219e-02
1.014845032597337660e-02
1.003630541042038749e-02
-5.549066198254834492e-03
-2.163969123691007745e-02
-1.586415106279659426e-03
2.187118090759354594e-02
-3.980769772722880795e-03
8.167026053656240014e-03
1.536354002033127331e-03
-1.599272703456264266e-03
4.290220768739656798e-02
8.155592190994359614e-02
6.422652430923309064e-02
8.474947753140478490e-02
1.042063542918331975e-01
9.586150798831596931e-02
8.150021469363361026e-02
7.379499350908748367e-02
5.476497217059514422e-02
2.334342426296862061e-03
5.989755393019019492e-03
5.964533414296958880e-02
8.763632601418076817e-02
5.537905754899213884e-02
3.535978560963284195e-02
6.048165903167042334e-03
-1.174351547110052962e-02
-8.648393294553365085e-03
-2.165994598801540549e-02
3.077890061510012154e-02
1.182700516637452404e-01
3.091022378604872944e-01
5.036469212246346139e-01
6.208370116477247569e-01
6.562191859734939348e-01
6.112946201081834730e-01
4.621845429617835177e-01
3.077332462418209680e-01
1.534616377299515000e-01
9.041147436054913777e-02
6.991492566863458102e-02
7.275192330858906709e-02
4.696694492652028069e-02
3.784723532904190474e-02
5.259088991511147448e-02
5.401127692031490457e-02
6.316493314322681185e-02
7.765499109667385602e-02
1.068389206793582402e-01
1.076136614505558559e-01
1.303317269324660022e-01
1.888989564106761665e-01
1.765706940600518804e-01
1.168132980701261786e-01
7.990606523792229132e-02
8.600506772375718367e-02
7.862655546345097279e-02
1.144781064153975042e-01
1.344157247624455376e-01
1.258341935839107362e-01
9.277373069247109305e-02
1.129423616239587230e-01
1.354436341260063514e-01
1.643016674417165923e-01
1.986050553625953730e-01
2.316649523821747991e-01
2.486845038201407898e-01
2.456836280981236353e-01
2.081320470637473552e-01
2.375844650813822012e-01
2.819235818338783894e-01
2.653561549995163693e-01
2.850018520474142392e-01
3.282726909669324011e-01
2.945501779898434536e-01
2.690387361160710422e-01
3.075002850309903613e-01
3.041754002846031035e-01
2.678671146543100678e-01
2.378475894036273242e-01
2.551660457139608984e-01
2.604938329002527420e-01
2.431479103237615680e-01
1.925464811115085162e-01
1.504730598055971924e-01
1.633981588537991303e-01
1.596505719833764825e-01
1.531977495075577400e-01
2.195912797689069107e-01
2.254172896628687250e-01
2.351792082708057396e-01
2.185627881097342573e-01
1.940710253620022974e-01
2.144988889367388796e-01
1.471898331690755790e-01
1.463231629576920434e-01
1.573209153946459049e-01
1.394396448630064733e-01
7.855833615959906258e-02
8.753270635337981331e-02
3.722703226149050304e-02
6.786076127788689960e-02
9.827600591477939074e-02
1.278615692093527934e-01
1.187035593102786502e-01
1.100640277655720173e-01
1.311163860218104160e-01
1.095400613517443084e-01
1.007982846593437343e-01
7.883427352268293498e-02
6.688880192259168134e-02
5.957634849492453311e-02
4.392268820935497919e-02
5.272343958360884569e-02
5.188512950343707880e-02
3.572889907226163564e-02
5.224999724444630289e-02
9.262344817757375837e-02
4.744806769770264915e-02
4.234932809279434024e-02
5.303955056294956671e-02
9.161581876927062107e-02
1.430106466814612398e-01
1.203063691752272873e-01
8.147133922500505998e-02
7.864106146712275536e-02
7.620889539719959138e-02
1.039285176345165901e-01
8.440944993115127859e-02
1.419348817256744222e-01
1.408122141296053176e-01
1.401013064226705185e-01
6.163332427705899008e-02
5.456800474433064901e-02
5.928501211425118295e-02
8.534451966089240393e-02
7.515216924097185835e-02
8.189859366285300035e-02
8.593787559669088805e-02
4.256359495086665945e-02
1.689379444990019019e-02
3.201305033729039823e-02
2.973078461121448496e-02
3.739259673273519907e-02
2.602128969110015927e-02
3.314099973741797822e-02
2.106337303558231122e-02
4.070535372480270364e-02
7.448206669412432701e-02
8.007413675004437792e-02
8.895171850980285178e-02
9.890240794650830003e-02
1.100979605260019312e-01
4.966509057621237844e-02
3.326026351812072512e-02
4.912627496043064229e-02
7.079603688074070922e-02
8.409808665887542889e-02
1.246330851722583788e-01
8.808542880187676671e-02
9.976956127315950162e-02
8.077965879380882841e-02
9.277062993739529362e-02
1.067802265392480549e-01
1.420166752104161378e-01
1.005599530248681428e-01
1.219122884069822610e-01
1.403982113254021447e-01
8.687891984752944829e-02
8.587415203064066582e-02
7.056912972438357523e-02
1.085173993805236548e-01
1.584903916741002838e-01
1.264309519286957451e-01
8.987177516623612306e-02
1.184769823397434502e-01
9.891806585325124690e-02
1.079088705615118410e-01
9.281858870755126112e-02
5.353492801827571673e-02
7.104408789485670839e-02
1.060368804769644541e-01
1.674963385321521225e-01
2.701904106294789054e-01
4.354065095017526921e-01
5.194257140459649369e-01
5.821408098804011777e-01
5.580714320556803276e-01
4.517070208066810699e-01
2.781712783265617994e-01
1.515516443893984988e-01
7.286510206073887330e-02
6.309460946374460810e-02
6.330368944946174192e-02
7.147669638560655292e-02
8.545351440783673092e-02
1.209016734752590277e-01
1.303168243333827081e-01
1.448737502977502090e-01
1.612454833677440247e-01
1.731422281830909959e-01
1.676807333599829586e-01
1.633224392014815951e-01
1.596679443102036466e-01
1.656550847765388412e-01
1.867781711487338514e-01
1.876747817563298726e-01
2.031047398232938006e-01
2.395130353312367177e-01
2.167072456924665214e-01
2.122444701514177856e-01
2.107528020477028585e-01
2.208096052224282069e-01
2.226800047808136507e-01
2.493269305533212521e-01
2.873481188578493883e-01
2.758091831024827023e-01
2.556036285633410676e-01
2.637081772324736950e-01
3.033582113334655772e-01
3.080759846160501247e-01
3.018256473866763878e-01
3.207903821874921735e-01
2.738197713539083922e-01
2.359259924831878519e-01
2.551214030868407256e-01
2.736745042418312623e-01
2.391169743664078862e-01
2.245837947081743002e-01
2.313326735406794066e-01
1.793752049486243283e-01
1.412292497467671770e-01
1.712929217003223148e-01
1.265852961783244801e-01
1.733854912308523399e-01
1.730354332221279989e-01
1.418512398963966414e-01
1.406742749259294323e-01
1.881169339619634950e-01
1.495712922841881398e-01
1.545024879855679822e-01
1.403623547300742735e-01
7.751880729715580898e-02
6.773887140032014420e-02
7.823174668513400987e-02
8.638047510584302702e-02
1.436704941096053623e-01
1.441624010094543218e-01
1.168289467866902853e-01
1.115886234282314204e-01
1.260398715051549434e-01
1.227170332627914029e-01
1.177862887414176385e-01
1.324057097748768674e-01
1.076605264654344751e-01
1.212056825253417236e-01
1.633159304096645503e-01
1.384903197964841848e-01
1.515789577969637869e-01
1.907224600546738591e-01
1.868975235239845878e-01
1.854875174280264105e-01
2.002894461204681176e-01
1.482932739231908326e-01
1.409824555800162915e-01
1.509265781675951934e-01
1.355098935299988150e-01
1.648751525194420697e-01
1.785391468084831235e-01
1.581780627642515036e-01
1.589411052436920102e-01
1.427584980962705308e-01
1.194795944960519163e-01
5.175866623744132533e-02
5.132980707833587064e-02
1.173803948713240675e-01
1.570163822849905966e-01
1.092310381528511509e-01
1.206830220325916803e-01
1.028341984264067865e-01
1.141870774605886346e-01
1.010244897004616699e-01
7.118512838687308941e-02
4.702618463768828971e-02
1.273785208536497571e-01
1.260960934384348642e-01
1.247153568030553994e-01
1.530257490630244632e-01
1.351412859234408237e-01
1.214807391051934138e-01
1.167886351169717396e-01
1.415403668424370653e-01
1.122598196995161501e-01
1.377109837950126758e-01
1.426061119912010178e-01
1.420739145473373932e-01
1.333219908803157661e-01
9.266967230779722675e-02
9.038698901647224115e-02
6.558379752903309434e-02
9.490120704022066145e-02
9.025119177059343079e-02
1.209303103505859622e-01
1.059580053567619889e-01
7.261860618447227300e-02
7.411459574324394395e-02
7.902914127641834374e-02
1.341804043052336748e-01
1.407053499841033617e-01
1.583382858332553211e-01
1.823668986648225854e-01
1.563197623009884574e-01
1.275440752651094134e-01
1.049066166076849799e-01
1.024523735198733382e-01
1.376377626196369774e-01
1.915274211169331053e-01
1.565915110286942025e-01
1.088938915818180031e-01
8.875189566271610153e-02
6.369560472235440141e-02
9.893953717012704541e-02
1.242605396171712340e-01
1.359443382281556589e-01
2.378424317125716336e-01
4.281484234564140179e-01
5.795472734432637330e-01
6.279737551256868722e-01
5.540036225517623869e-01
3.997054524566144296e-01
2.768041500583752756e-01
1.804921775979486942e-01
8.927252194334581170e-02
2.538182890255138990e-02
2.589455318160528013e-02
5.936778801435201036e-02
9.483467914428470036e-02
8.287429306304341936e-02
8.312256293082027903e-02
1.428335472563607433e-01
1.212950006754227039e-01
1.416633945616195545e-01
1.884350905260068210e-01
2.032535455827545190e-01
2.156797294439000146e-01
2.240639692537383376e-01
1.652013656483967974e-01
1.821783508597666357e-01
2.117169832485468195e-01
1.813697133264299821e-01
1.599659315785179059e-01
1.815097493222870562e-01
2.125570657211933168e-01
2.402300423294178866e-01
2.170516901583722236e-01
2.350643166280347585e-01
2.603156977453908172e-01
2.367723418098189037e-01
2.531299983689494493e-01
2.996689080399976834e-01
3.000263444853082939e-01
3.362618802208027224e-01
2.705820992162260574e-01
2.393391855073753738e-01
2.218927698003804738e-01
2.302132129475527034e-01
2.359786576984711226e-01
1.930215680697928704e-01
1.900262401348449259e-01
1.889998052219338531e-01
1.894818049926890735e-01
1.659416886065705754e-01
1.716468805883736848e-01
1.734718110661111201e-01
1.312407007507001011e-01
1.117121678277449986e-01
1.380659487449857059e-01
1.397433134877364425e-01
1.363459840888406882e-01
9.417922722043879646e-02
1.209800474320318342e-01
1.130497516715741058e-01
8.785884570277029126e-02
5.853260082615752147e-02
4.985165956026121198e-02
5.227646180375739721e-02
5.131330435941906798e-02
7.139857211542688376e-02
1.243988517929118937e-01
1.385209011890153330e-01
1.338082590160891705e-01
1.221785754370216664e-01
9.056273054574194570e-02
7.975331232400305337e-02
4.986721710376943589e-02
7.534171056529737065e-02
9.966483359717916157e-02
1.031699111639189509e-01
3.614844963223033669e-02
6.141528388768559277e-02
7.830870913626677976e-02
6.414469937269812183e-02
2.553022466247924227e-02
5.020162073500798045e-02
6.391097737459022765e-02
8.469187700056941825e-02
8.102303903902555171e-02
4.560497885608147395e-02
6.028793095525460111e-02
3.872780643850944754e-02
3.501648729990711889e-02
4.202106659454721282e-02
7.408709896459531041e-02
9.433698111512249518e-02
6.887242621467598580e-02
7.849386926673690423e-02
7.914750443552726056e-02
6.221158682965431674e-02
4.559311912147753082e-02
5.664451666249820105e-02
5.766774281524755796e-02
6.826478954580694758e-02
5.827335416784210076e-02
6.182380356383130465e-02
2.660911783971363354e-02
4.189875373414261861e-02
5.797642743528885756e-02
4.832573041656593182e-02
9.235118651076056062e-02
4.666226797485592548e-02
3.032869636977337385e-02
7.339307367579189778e-02
5.258589908991403994e-02
6.835361956190244559e-02
6.152991627068257058e-02
6.879798447536156214e-02
2.992508701932564130e-02
4.840582798610235105e-02
5.209017582673840935e-02
2.990270974278480542e-02
6.816709824899228054e-02
1.041820088021815499e-01
9.831184719200494748e-02
1.021679486692189387e-01
1.640543359406635426e-01
2.229716156989105802e-01
3.922746585510561435e-01
4.770164146429290430e-01
4.053238564358969676e-01
2.690033501971564878e-01
1.651455710022597945e-01
6.545035140938931795e-02
4.947919515296617804e-02
4.366478360952980725e-02
4.152661081898656459e-03
-1.290951270771420467e-02
3.705202239117562357e-02
-3.997618773809288872e-03
3.700282909386717889e-03
3.489352228917144694e-02
4.865534044800443048e-02
5.643116591570092322e-02
3.158964335332008211e-02
3.676720476926055581e-02
5.287364321586607296e-02
5.433599518276550910e-02
8.280729338394089700e-02
1.122409816258070625e-01
1.674842723077625273e-01
1.534971160214429753e-01
1.250742239316535720e-01
1.616156126413190730e-01
1.882793927134526479e-01
1.600025217573802228e-01
1.069621834423829798e-01
1.107855303853922946e-01
7.326540166303284474e-02
5.718334691257942470e-02
4.022116310495055247e-02
-1.475618957834781697e-03
-2.866461151329956214e-02
1.641926666924202471e-02
2.364362116404696013e-02
-2.045513377810778688e-02
-2.732928713867581461e-02
-4.346332622282134128e-02
-4.902826970274359875e-02
-3.448896094319425787e-02
-5.461719760276761981e-03
2.185691258015511063e-02
2.028786318485811813e-03
1.492431563056746679e-02
3.084919170585449094e-02
5.830074579997980566e-02
5.883052844395855741e-02
7.443521669966740584e-02
1.252926373628978352e-01
1.020215942005327087e-01
4.916366887019817111e-02
8.911884092997637841e-02
1.110833909749881776e-01
7.687675652635042600e-02
5.575350370991259685e-02
8.385317422768254203e-02
8.131597828517464488e-02
9.271348240216566172e-02
1.095967000761394472e-01
1.074794077245899010e-01
7.471194787993772068e-02
8.981608676016111792e-02
1.466158455027180008e-01
1.155870419906509794e-01
1.001212408722346875e-01
6.064260797392670432e-02
5.666259169701254317e-02
6.577095060600854359e-02
4.889580250028285890e-02
3.163326580301123458e-02
5.316160489495336261e-02
1.083555158992544065e-02
1.174915956021872765e-02
5.529812187703576909e-02
5.170751509612517283e-02
7.443436716358242666e-02
3.593463450087978905e-02
3.472430700443324830e-02
5.419700370473291146e-02
7.748868193747471267e-02
5.323215410743824955e-02
4.921398730036426195e-02
3.577886335039000970e-02
4.344718569507405315e-02
3.817748975766827035e-02
6.953554236343123529e-02
7.910055905903161377e-02
6.328191914348063607e-02
9.575659053901017237e-02
7.930943421061865950e-02
8.524358761106834437e-02
9.923486448837567919e-02
1.123423022150759898e-01
5.372322367946667787e-02
8.587228667853541442e-02
7.991869607953605570e-02
8.186304807548383522e-02
5.958374304812320832e-02
6.765624922815509368e-02
9.266075938369100484e-02
8.555842556241839703e-02
6.823774641395620455e-02
7.828435059203930901e-02
9.634602133889574871e-02
1.078602193112905977e-01
1.092146951592190551e-01
7.731172928983331971e-02
7.593154207352717511e-02
8.785065476055554934e-02
9.264622228569793783e-02
8.826393524999433249e-02
9.239918521993092937e-02
6.841742666977315701e-02
8.606962836325983413e-02
8.487621149113798447e-02
9.865789602132744862e-02
1.182561770476064228e-01
1.326379307910398042e-01
7.668352814592763189e-02
1.321493023717958126e-01
1.502830230634394637e-01
1.871385606361430920e-01
1.464857980505094304e-01
1.278478492734665961e-01
1.257043625247202256e-01
1.058280524914467224e-01
9.798627579945452803e-02
1.180160223298880595e-01
1.213705122990595825e-01
1.129090898157766448e-01
8.544824624797273116e-02
9.371311599172185702e-02
1.207361970678732521e-01
5.574454567999477528e-02
8.547526052713375067e-03
2.016426549498334664e-02
-4.590976948466454766e-03
2.023587340885325131e-02
5.831205190530504290e-02
6.845815784586622987e-02
1.641945757312152920e-01
2.474230300500818158e-01
4.164170094800900834e-01
5.774540603479093592e-01
6.985139448730443013e-01
8.155651187764321186e-01
7.892613557289274162e-01
7.317788798913050785e-01
6.228206622398605452e-01
4.428025599447754646e-01
3.362880319544491181e-01
2.289130723479771146e-01
1.482619961668568964e-01
1.182943228969962624e-01
1.075495391263097122e-01
1.022713654090234292e-01
9.220668754044837601e-02
1.127025025094012256e-01
7.813973626689001140e-02
1.022085911581559758e-01
1.197814794550076528e-01
1.569867878062601307e-01
1.688061674134005985e-01
1.316682849976536229e-01
1.223975325962239069e-01
1.357672495919898803e-01
1.131288608013920199e-01
8.584650921920647382e-02
9.163996611920455226e-02
1.324839711745172677e-01
1.524564628521897780e-01
1.474697954822251078e-01
1.579284861318935584e-01
1.613711939321963440e-01
1.463864334231631537e-01
1.911141004944131860e-01
2.164067578963379257e-01
2.369943475041850767e-01
2.165221434549948198e-01
2.196814471211354647e-01
2.067815201615964826e-01
2.013077656212093336e-01
2.118598740283902382e-01
2.440126631574454086e-01
2.304929161743168864e-01
1.973311166154128049e-01
2.322567968746553912e-01
2.885967800887112578e-01
2.832118017551435440e-01
2.749800138982065323e-01
2.463765432154990664e-01
2.794444927695106107e-01
3.200227693746459656e-01
3.481491878272993112e-01
3.495403730862097214e-01
3.399800588139623159e-01
3.353728393920659134e-01
3.082648942463276920e-01
2.778416766923296755e-01
3.017576613508263783e-01
3.220600609596671604e-01
2.355044920804244268e-01
2.101932791283285806e-01
1.592583702812746249e-01
1.390932204362483326e-01
1.199215110902659975e-01
1.134272067404879236e-01
6.927831983989285458e-02
6.930110816367648918e-02
1.064198198408213836e-01
6.676664046774058447e-02
2.739510257273887472e-02
1.396348849489728594e-02
3.711592169173873190e-02
7.278105992764155596e-03
-3.568103048827805934e-02
1.901469445292149063e-02
1.677958428230233445e-02
2.479770694205317427e-02
5.368986606582079602e-02
4.213038734951169567e-02
4.303817947292681856e-02
5.981031311671852757e-03
3.059131854797119549e-02
9.526119831683332873e-03
-1.675215724376746818e-03
5.147484203147049964e-02
7.545252323705102515e-02
8.197354593389129251e-02
1.117737911872039303e-01
1.293555040126583844e-01
1.173483376309892023e-01
1.051230183571857241e-01
1.480319156182248741e-01
1.429788961218745880e-01
1.812126299103747340e-01
1.970066436047746006e-01
1.832531793262064945e-01
1.883561838808798239e-01
1.569775434585103935e-01
1.733423556037230195e-01
1.653768813152047545e-01
1.550016839542124047e-01
1.548634584387025281e-01
1.498918311416951865e-01
1.137301231289479103e-01
8.061063305566078252e-02
8.147956720390923946e-02
1.281217081589580420e-01
7.689545695381569401e-02
1.117131380877273983e-01
1.624321654101128776e-01
1.540629968551606166e-01
1.403789472392337478e-01
1.497921632437525519e-01
1.368035140261208427e-01
1.387654670115965327e-01
1.465712724125779742e-01
1.772173692867398120e-01
1.695841037741591673e-01
1.561115022979895350e-01
1.240530562431903239e-01
1.423600188015501367e-01
1.471118714246065218e-01
1.102965145390966684e-01
1.448421429891151302e-01
1.505087337132658687e-01
1.442621749424382871e-01
1.300279361126511490e-01
1.118015344053063798e-01
1.217015187292362632e-01
1.527324521387360690e-01
1.839203077866090608e-01
1.492225524146628957e-01
1.525821947957769487e-01
1.283147235846894274e-01
1.525091158781016754e-01
1.411874569192739792e-01
1.260837085748809927e-01
9.729840220045166133e-02
1.570511554479048499e-01
1.067079062536049339e-01
1.132513435620732672e-01
1.362003420978216695e-01
1.072258225762368761e-01
1.421234004011490970e-01
1.089549429046108159e-01
1.126205235936612870e-01
1.598943535147550887e-01
1.736687478418540431e-01
1.908752628881777436e-01
2.193207813297272935e-01
1.990906551436736338e-01
2.088018714062403469e-01
2.097458477860680848e-01
2.233182050797191676e-01
1.711680918826523623e-01
1.479600130055122031e-01
1.646140861017531820e-01
1.754439442361411527e-01
1.895824452814650063e-01
1.361683817899370652e-01
1.348946739661549543e-01
1.269402123709733599e-01
7.804969675978561117e-02
7.069911514460357205e-02
4.778796395700701805e-02
4.458610745789653995e-02
6.474036756837849016e-02
1.652736526248848870e-01
2.214354658660863395e-01
3.536639591294059581e-01
4.723337008262123993e-01
5.972087949617952418e-01
5.961937764373342885e-01
5.106431452556834394e-01
3.791148858413789235e-01
2.270545154832820378e-01
1.626055693784218548e-01
1.342147599587118489e-01
1.154280345409340741e-01
1.418303225321407290e-01
1.355638526732633742e-01
1.067378805833737732e-01
9.752015428522800566e-02
1.029734768635310604e-01
6.070461691473247323e-02
7.984939456665966773e-02
1.292556882736523305e-01
1.431591071658575853e-01
1.491116657369805087e-01
1.833075981954756517e-01
1.778458416594415337e-01
1.475083839226401239e-01
1.616354468175089099e-01
2.220001982282829855e-01
2.293428359526794857e-01
2.076173353111241959e-01
2.145014788543895545e-01
2.575028576485675624e-01
2.593346491784207508e-01
2.875585607880132843e-01
2.993263835948650198e-01
2.833385300479924762e-01
2.631593311768747334e-01
2.484019132196222390e-01
2.506143385008261504e-01
3.080007745588371204e-01
2.641616107128480495e-01
2.623144340987919043e-01
2.770449387560875998e-01
3.076647142330511397e-01
3.168050086276227306e-01
2.882566408057007923e-01
2.554629416619323412e-01
2.845760229085556037e-01
2.575663865717770507e-01
2.366940383448309648e-01
2.222293721452957005e-01
1.793232670334908851e-01
1.430631558011740134e-01
1.474578256179087110e-01
1.195779341855124495e-01
7.703073348432720735e-02
1.009498148053521449e-01
1.076202225325327833e-01
1.116643754427710383e-01
1.104137457332768912e-01
8.038910354762811294e-02
9.307484390732895241e-02
8.823856797958880283e-02
6.403666989329460935e-02
9.057984877726357742e-02
1.217954988605057798e-01
1.312381250497920149e-01
7.130696266461955535e-02
6.035786059004136922e-02
3.797953649457323777e-02
7.412711560878103290e-02
1.122141487300608587e-01
9.934572693799087473e-02
9.283681275417232648e-02
1.044764654520262681e-01
1.000309956720681487e-01
9.169938023574236707e-02
1.003397643215130641e-01
1.175363039786183894e-01
1.673723767368628379e-01
1.935902427873163467e-01
1.644614902031348858e-01
1.250769484935585485e-01
1.340154641570418526e-01
1.328418894350931745e-01
1.440931394787401398e-01
1.136499281275757667e-01
8.958309855932011789e-02
6.713516502163689725e-02
6.683204038555154436e-02
9.140388649440264746e-02
1.349198349770988070e-01
1.556508413894762133e-01
1.770110315462669059e-01
1.880684558228458148e-01
1.843739711805332804e-01
1.797166231281376314e-01
1.962370086345620046e-01
2.017793780005920912e-01
2.538558935274013439e-01
2.044959749875168431e-01
2.021066880374331465e-01
2.234405701682515843e-01
2.358241713272471451e-01
2.239410136307114496e-01
1.980075923303452612e-01
1.808251902452694404e-01
2.052713505588510401e-01
2.093497070262310689e-01
2.648761312682357816e-01
2.623778442224958818e-01
1.870922288069619410e-01
1.162236213670152507e-01
1.317064327367837850e-01
1.885254455666319218e-01
2.183567948237281342e-01
1.963186633112914969e-01
2.313064381016767812e-01
2.035834622222409407e-01
1.942298755178996084e-01
1.994365013659539221e-01
2.084141342993955370e-01
2.247836922672846183e-01
2.538350531109587749e-01
2.451577527325113359e-01
2.328677974030326503e-01
2.205567057297042610e-01
2.255368639848378542e-01
2.099038466510475542e-01
2.111648088421280711e-01
2.276546988554868090e-01
2.395950663002478498e-01
2.439221449309613710e-01
2.435063343482858356e-01
2.334979032700537915e-01
2.532656586379352648e-01
2.300465319397959618e-01
1.961046550896878571e-01
1.833609293018550468e-01
2.060912489498802347e-01
1.573695805998672759e-01
2.068193626380408490e-01
2.716121380851178602e-01
4.048607316183415183e-01
5.771476404964652751e-01
7.049315427463859196e-01
7.039423632521848440e-01
6.278193569179152389e-01
4.878947850786292673e-01
3.754569805330236210e-01
3.002557673782947911e-01
2.763169584946414403e-01
2.396042946760819359e-01
2.139811122518552322e-01
1.896053651301425891e-01
1.938631256197170805e-01
2.430921240758777135e-01
2.209068018146526091e-01
2.338357021730211871e-01
2.227556042178820972e-01
2.807569114911635522e-01
2.588421608160775267e-01
2.175649771136051736e-01
2.295841547139774175e-01
2.506840381958532205e-01
2.806834004380553971e-01
2.445429461600738819e-01
2.476927024016321588e-01
2.635755734147441354e-01
2.310888688951093228e-01
2.523841677924839044e-01
2.690332247549622746e-01
2.669375349316592261e-01
2.925591225800123207e-01
2.774562937195533818e-01
3.403589908238255912e-01
3.322432599215528470e-01
2.813488073964681702e-01
2.632101900152937213e-01
2.674139371603611037e-01
2.962445308439797809e-01
2.852812987438938519e-01
3.184101051060250764e-01
3.023650507312886093e-01
2.743247815689630054e-01
2.955723133356593091e-01
2.824741589231917760e-01
2.251832882641400801e-01
2.257188371233338486e-01
2.274155580300903645e-01
1.712527674893851992e-01
2.019368110812634898e-01
2.404510491301415920e-01
2.224934194355528416e-01
2.144183890029351391e-01
1.918261944041008138e-01
1.727513146811206490e-01
1.613670971969694001e-01
1.488847859374807514e-01
1.549986245016078401e-01
1.599181924681266631e-01
1.000581921590963097e-01
6.622754628980848102e-02
1.041474132384337392e-01
9.843530827366744895e-02
1.177798697184489485e-01
1.186923667138962413e-01
1.489572744243160551e-01
1.871053135576451476e-01
1.952422230645905477e-01
1.329019826280174177e-01
1.144759259044546285e-01
1.443406607757849736e-01
1.736802565697508904e-01
2.088759982459453268e-01
2.260685423414958151e-01
2.070193744218330467e-01
1.927848790099219167e-01
1.893431735747364009e-01
2.294126873698088542e-01
2.077659406153890553e-01
2.440922762665203027e-01
2.483897622957643714e-01
2.416444687197533414e-01
2.030049927960414502e-01
2.087510901432894084e-01
2.168101853109934973e-01
2.258699156520805884e-01
2.107415814473507509e-01
1.822482662835689937e-01
1.821998382226508451e-01
1.430862297992858412e-01
1.704189009140458788e-01
2.190432950590202599e-01
2.090518876763858835e-01
1.782456702680783045e-01
2.076528298046608767e-01
1.990968943430840021e-01
1.975740992843608157e-01
2.017154869237520742e-01
2.178458074260975486e-01
2.399221149544048248e-01
2.409550762220893094e-01
2.303135603117366925e-01
2.644455381636990898e-01
2.273937328160398064e-01
2.373943557535418414e-01
2.234457817632352628e-01
2.349217469699862448e-01
2.494572723554174531e-01
2.140139304568212109e-01
2.049294247613718811e-01
2.229714215858696336e-01
2.094450476772531933e-01
1.740936955839415545e-01
1.739004258969412131e-01
1.859350235853498845e-01
1.295920430175234450e-01
1.138274667066233176e-01
1.786596496313948013e-01
1.809690922384142864e-01
1.770645807698014995e-01
1.590365291762306788e-01
1.603537385358030365e-01
1.925495527136715235e-01
2.128082223586665045e-01
1.989171915520479006e-01
1.653686985373933327e-01
1.786854006193391853e-01
2.220033209864152035e-01
2.226703016404249502e-01
2.404272147157008321e-01
2.053150989752448030e-01
1.769794317111539894e-01
1.986167016384321748e-01
2.064902308487611138e-01
1.773569059625480504e-01
1.419673494162230487e-01
1.394210120102208905e-01
1.289943177725028922e-01
1.996244349991948552e-01
2.011244666457449315e-01
2.102371358991792505e-01
1.939942582756709888e-01
1.729746681329985825e-01
1.754190989689241031e-01
2.546695418396082711e-01
3.971850294185564900e-01
5.426279618286786732e-01
6.660529896569944430e-01
7.009163770769857305e-01
6.273978544667428991e-01
4.895468499466363310e-01
3.178316367555819588e-01
2.071928001552138798e-01
1.449175079244345576e-01
1.169222990669495088e-01
8.101796514024833806e-02
1.181557301016922523e-01
1.039952346451240434e-01
9.232729343061549243e-02
1.110784753783954915e-01
1.245065759357694424e-01
1.048058326933730272e-01
9.227346271672316746e-02
7.796844054603416230e-02
1.067298325748701759e-01
1.265009609205605401e-01
1.171066572305877462e-01
1.136427281475157064e-01
1.378008192150439459e-01
1.679200458541404428e-01
1.548069504308331457e-01
1.706826236627787541e-01
1.964271105446601384e-01
2.065618740404411291e-01
2.385364278746427424e-01
2.466333268908844911e-01
2.690389068832773622e-01
2.545710777928877344e-01
3.011448383708532073e-01
3.876208203890433857e-01
4.003943922450371451e-01
3.809916909641174465e-01
3.758901441437641489e-01
3.742212151885801474e-01
3.037930594786737992e-01
3.005593138445396550e-01
2.939467153211305361e-01
3.160742264459620587e-01
2.940232362717184467e-01
2.673001066617492483e-01
3.122536611427694786e-01
2.746876006804687687e-01
2.456887179941243393e-01
2.519050638307128720e-01
2.336162974332218201e-01
1.977836734853779532e-01
1.640396931109596168e-01
1.661527332048327865e-01
1.506749780289442509e-01
1.913615690209256870e-01
2.462001662445069960e-01
2.349910090782284799e-01
1.707083326570111304e-01
1.472412820513220033e-01
1.638894617877250104e-01
1.382003756985057952e-01
8.795973569360829303e-02
7.051882500455394776e-02
1.067820594087166008e-01
9.955112140309807511e-02
8.677357155097641106e-02
1.284212436837765814e-01
1.833937687655034510e-01
1.472390785289750537e-01
9.827635001017524796e-02
1.197697572279953354e-01
1.263855839434495920e-01
1.082306297186656496e-01
8.909032259950332155e-02
8.695206980850364586e-02
1.345560653954160357e-01
1.334421797965623380e-01
1.335528598090137131e-01
1.211950692590577500e-01
1.353692092739894604e-01
1.602994064418908904e-01
1.205411786399012419e-01
1.033361582020474317e-01
1.394129356391556884e-01
1.512362229503292910e-01
1.554397559004865870e-01
1.303645885594848230e-01
1.373023153606403590e-01
1.321819964907200717e-01
1.134263349953084643e-01
1.619927743036609358e-01
1.563867472217677912e-01
1.282532341272813736e-01
1.461883937717698978e-01
1.421502485504949898e-01
1.444308255920813688e-01
