3.044267520154193482e-02
3.382011036233645990e-02
3.646514782974346388e-03
-4.700461486138479000e-02
-2.557143828616754294e-02
-1.912268865640007892e-02
3.156029154194211345e-02
3.991622959095803697e-02
3.645145245327835459e-02
3.304903878099375858e-02
4.168981109895478210e-02
3.213275124838781138e-02
4.977022594571903907e-02
1.182112802603229595e-01
1.421736401083283918e-01
1.122060443163729049e-01
8.826891241237651287e-02
9.482470328493919354e-02
8.907320235088678206e-02
1.195047026283186098e-01
1.477065430545868308e-01
1.646132402402543660e-01
2.213747058481689844e-01
2.437505863907858117e-01
2.759708469284842813e-01
3.070649380922505500e-01
3.297918901951064630e-01
4.229398291087416162e-01
4.553666377729106984e-01
4.684302749590886772e-01
4.915384097494596150e-01
4.565179654889467975e-01
4.706509057456345624e-01
4.767336811879122616e-01
5.182323475710248761e-01
5.029189164455205585e-01
5.149110484184098446e-01
5.183943544232053613e-01
5.938052776180933190e-01
6.097456929484003085e-01
5.792561982711742496e-01
5.714078703421691108e-01
5.794312279911790764e-01
5.706270944117760591e-01
5.628871874938097264e-01
5.596923791652457236e-01
6.098657674223834091e-01
5.975236743995415711e-01
5.605485468359645562e-01
6.035354841390812020e-01
6.336567410182066817e-01
6.001437924162252857e-01
5.916907199177995347e-01
5.701572553030112012e-01
5.082229359299623717e-01
5.263896463624750943e-01
5.389500292150067873e-01
5.623061818112765620e-01
5.284747275833926450e-01
4.991413348879089606e-01
4.385912055107061835e-01
4.217440784303821411e-01
4.816870275091181819e-01
4.758772461415665678e-01
4.117386625700017455e-01
3.508905299386516630e-01
3.490708590978778836e-01
3.282498070170208893e-01
3.162501900850350767e-01
3.026442463303962160e-01
3.197650672289965024e-01
2.879819952479694689e-01
2.659691482234016191e-01
2.708149402875402734e-01
2.246062518446922396e-01
2.905172031477337158e-01
2.927540946533039312e-01
2.973044374200449202e-01
2.815921756618665617e-01
3.017058934212503152e-01
2.934340422595685949e-01
2.956731930958471644e-01
3.429099010676767145e-01
3.261413224496240715e-01
3.056899220802979378e-01
2.935970796912745762e-01
2.831147421487824611e-01
2.618568108457032806e-01
2.662666170686458500e-01
2.878970955220553352e-01
2.967019420354310988e-01
3.255128101507757110e-01
3.325529747528973012e-01
3.551952892795605110e-01
3.765205175771136337e-01
3.395305803164507807e-01
3.065821602908912480e-01
3.573845692640275074e-01
3.614653921057126018e-01
2.797499918983746281e-01
2.621280192703178136e-01
2.879160593245590483e-01
2.995415023110746255e-01
2.948668533641179423e-01
3.087135516058465146e-01
3.185773203093174577e-01
2.651821828513650781e-01
2.655826943770212556e-01
2.715193466628921248e-01
2.822941872659967544e-01
2.846820262414704872e-01
2.894156322214427868e-01
2.953031654543762929e-01
2.526661488929657917e-01
2.812240280285582261e-01
2.789662882987929970e-01
2.740685488650158042e-01
2.618792579759132710e-01
2.046874861595939787e-01
1.933906774398956863e-01
1.996565149729146171e-01
1.780910982031914114e-01
2.102187028353780240e-01
2.138327132924708329e-01
1.569296521987350035e-01
1.610961002854963964e-01
1.433804133088547594e-01
1.157998365024305171e-01
1.525532037526271534e-01
1.253966107119728612e-01
1.287323270519857010e-01
1.385068640665349238e-01
1.736185505613483115e-01
2.027529638790396826e-01
1.574553930437037064e-01
1.615222918817548758e-01
1.508960476939221751e-01
1.243600992164621277e-01
1.097737066064076311e-01
9.061343177929045978e-02
5.146678089425283514e-02
4.458299619882306192e-02
7.122786174037627760e-02
3.553948468347020023e-02
1.178249414710995889e-02
5.310469363934351705e-02
1.043282118893710253e-01
1.233137626111168034e-01
1.073090515496768760e-01
8.644069520948899354e-02
8.253503512405616083e-02
7.326049436167483830e-02
9.663400241283230663e-02
8.032976592882015709e-02
6.410442605163578500e-02
6.540425081251538542e-02
1.084365838408524602e-01
1.341433808682639950e-01
1.661293303672544686e-01
1.521182141156736667e-01
1.087511605568721451e-01
8.214347629694962460e-02
8.900330656699405318e-02
1.231872613032833630e-01
1.617288281153720642e-01
1.203927048469301264e-01
1.433479786867302985e-01
2.516166200559081245e-01
2.950598533122203437e-01
2.855863950459133216e-01
2.796464001448998316e-01
3.224039965552291109e-01
3.750867916107427091e-01
3.819896233018303389e-01
4.237509951040723810e-01
4.574165978668709442e-01
4.943406114890697145e-01
5.285410975032730496e-01
5.882661630434514732e-01
6.297034592294470379e-01
6.459660902786772407e-01
6.550996504041984858e-01
6.618040350009398720e-01
6.667254233452721834e-01
6.545717014781581300e-01
6.511801071648606332e-01
6.547630728660001065e-01
6.612860031634145708e-01
6.685274365127287233e-01
6.368725727780392143e-01
6.517984858965830686e-01
6.437665631632571994e-01
5.981878450118336410e-01
6.056208821339120751e-01
5.648963364274081078e-01
5.372493025332787386e-01
5.227703886416353862e-01
5.024497584451339538e-01
5.023216762912069422e-01
5.562103168318685009e-01
5.566746486495103285e-01
5.800767851187176305e-01
5.895305710152254353e-01
5.912521375003187973e-01
5.781303917371631851e-01
5.267532348070838033e-01
4.610083735735162058e-01
4.427580192292492334e-01
4.502597646730001624e-01
4.611091551551598222e-01
4.004738396304419745e-01
3.761580339983027210e-01
3.771731919377282471e-01
3.821201893608160982e-01
3.925436843429896960e-01
3.963789821737301877e-01
3.130368450662279201e-01
3.053015760075862284e-01
3.184883671995850651e-01
2.850171834809032689e-01
2.655895471272026187e-01
2.958205835045988885e-01
3.172895306697159912e-01
2.846549253289151760e-01
3.224544905136552120e-01
3.261250375578624849e-01
2.916087578121976942e-01
2.587528210609426615e-01
2.920232016880571768e-01
2.991522421610736671e-01
3.106019915896244821e-01
2.719284819304773615e-01
2.893508735098161422e-01
2.819890645716926492e-01
3.414193479744323523e-01
3.564215101447782974e-01
3.395083841691861060e-01
3.300709834184403779e-01
3.386055126616516198e-01
3.502427935086059319e-01
3.664797721192830648e-01
3.368370262433174611e-01
3.469810132805125624e-01
3.504567438473677465e-01
3.133095662461322650e-01
3.167346700463137821e-01
3.292615156632333617e-01
3.163025225102580329e-01
3.310854101426333185e-01
3.300768100281766815e-01
3.273648255711453237e-01
3.029171713347167949e-01
2.916525607961398259e-01
3.323087701574479191e-01
3.169697100835719428e-01
2.958640300374901777e-01
2.809102478095674704e-01
2.632971748621756869e-01
1.927211413372357240e-01
2.107959090091242604e-01
2.644922060618497550e-01
2.466602957516293437e-01
2.160410298164602561e-01
2.317229457560096850e-01
2.099117906966495861e-01
1.834379597382944094e-01
1.687954759372377322e-01
2.242666373654964296e-01
2.223001165296082104e-01
2.039173379913633288e-01
1.808257147319867753e-01
2.275874887087712128e-01
2.414753131956622334e-01
1.883775411142817324e-01
1.610051007196457995e-01
1.541426664457379581e-01
1.352691861941207885e-01
9.551794752373651831e-02
8.963827160599346922e-02
6.371397166298897741e-02
2.485342746817770232e-02
4.967332096135506497e-02
6.605638238942417029e-02
9.360463975753291477e-02
9.004522797888785124e-02
7.008601267976216631e-02
6.354708162729819088e-02
4.117361441954033724e-02
4.533765825034334618e-02
5.970937131021904209e-02
2.907649139501997104e-02
4.471358846698056388e-02
2.612269540466297113e-04
-1.259556762517469869e-02
-3.263736899702651684e-02
7.842763241983016081e-03
-4.672905483995268110e-03
-9.219547954523578479e-04
-1.550828952231858744e-02
9.275499653818288989e-04
-1.942475402021577938e-02
1.849472656248092248e-02
2.010578539059929698e-02
-1.587971827139707595e-02
-1.555809224402858806e-02
2.592355232997589631e-02
3.854420926871639230e-02
8.119968069316665926e-02
4.360100210973853752e-02
6.492671115360147682e-02
7.144695275577582494e-02
1.140997778195771001e-01
1.425903928049578051e-01
1.643627823102564167e-01
1.890178434136479124e-01
1.921243977746774634e-01
2.255608260038874380e-01
2.551925163407174346e-01
2.516129539319066355e-01
3.024913644416688530e-01
3.102739922018404872e-01
3.059913753020334637e-01
3.586198524395496356e-01
3.939505197225479094e-01
4.477622689354903707e-01
4.792545525539956830e-01
4.843228644635156899e-01
5.176949376058785912e-01
5.632081160864259584e-01
6.157671107193420923e-01
5.555636140079445173e-01
5.226313703111331588e-01
5.879859477379567601e-01
5.582863110034350651e-01
5.263533893115205364e-01
5.706913472745013260e-01
6.212979520890370422e-01
6.106082808493940028e-01
6.167733250223516039e-01
6.046216176060796865e-01
6.044943396018637172e-01
5.950100151639976520e-01
5.685856174623861170e-01
5.414737692935134294e-01
5.362986357547615546e-01
5.096574374685123310e-01
5.077465671979153328e-01
5.067512997210192882e-01
5.381202053464104740e-01
5.312755740133582316e-01
4.691032913873852128e-01
4.796474604047448742e-01
5.080835884688297277e-01
4.955645344424164378e-01
4.606645992450564830e-01
4.459236751019117206e-01
4.186096680590830066e-01
4.703500220384353447e-01
4.561117089083688847e-01
4.089721457079323885e-01
3.995149100250202090e-01
3.822332154858069653e-01
3.485665328183002454e-01
3.558139905244777079e-01
3.378850279849327509e-01
3.123071922100403297e-01
2.819996192388040113e-01
2.776287492754522246e-01
2.699856547879208590e-01
2.553433288010961144e-01
2.555655959177178249e-01
2.369212800621035286e-01
2.384398902236406492e-01
2.709073621851531000e-01
2.519721338487929119e-01
2.302773023755770032e-01
2.448802520586252918e-01
2.935328697999573522e-01
3.190401922445191829e-01
2.599213026840127561e-01
2.880159119575262938e-01
2.828574732370828237e-01
3.269907305661348129e-01
3.891839082990586896e-01
3.523800084187609372e-01
3.181970760018148492e-01
2.714054784335049875e-01
2.565104055889768642e-01
2.741557439012964892e-01
2.783587707215569584e-01
2.929171049845064045e-01
3.026368097002926083e-01
2.722587014346059542e-01
2.775394399718292271e-01
2.814889997667604504e-01
2.400868925477420424e-01
2.450200276323901416e-01
2.518655255148598560e-01
2.317712816147795285e-01
2.517180292851382561e-01
2.327282168607812673e-01
2.115201160659816171e-01
2.610866795970657739e-01
2.740146356017405527e-01
2.642101515542725210e-01
2.701298984059095631e-01
2.553752673742063495e-01
2.421630255486089955e-01
2.182615632200726186e-01
1.674741780241035816e-01
1.610672247808518642e-01
1.274027514049944354e-01
9.773788295491224465e-02
1.163696692412776457e-01
1.565480507021502210e-01
1.418244797905068855e-01
7.566327226167200715e-02
6.203052542558878946e-02
7.268896048696577017e-02
8.172063345990629446e-02
8.623580734483325683e-02
5.640182279819966338e-02
1.302138638944794202e-02
2.682731331606538761e-02
2.763953360818841021e-02
4.427330506198613735e-02
-2.663206109540267041e-03
-2.833389630890802147e-02
-3.947907550442353308e-02
-5.400745726919857492e-02
-3.368925310456359623e-02
-4.251583544764805933e-03
-4.198396862574380051e-04
-9.733627783974740932e-03
-6.020342726538239347e-02
-5.229825734783598995e-02
-3.601333631584682782e-02
-7.573984360474927957e-02
-2.121847030237727222e-02
-2.360701322229012689e-02
-1.389373061916897821e-02
1.139989094168428196e-02
4.265304753471144128e-02
5.507175301373536808e-03
-4.758236433984628505e-02
-9.614194078100593566e-02
-1.003588664191862739e-01
-8.911299014213364122e-02
-8.841231795121726189e-02
-5.388440129560745362e-02
-4.350747679921321276e-02
-1.593592125148537986e-02
-4.628895218977651521e-02
-2.292310433651178342e-02
1.895826761053601497e-02
2.691316115306841006e-02
5.985937342487898660e-02
3.894707206889717194e-02
1.299681997733068139e-02
2.938163571848426137e-02
3.674919158391790064e-02
6.613088249331196267e-02
1.117896108027068014e-01
1.475762804235545567e-01
2.396236730691481687e-01
2.991205834955579235e-01
3.143653720163503418e-01
3.262070192638878430e-01
3.458824649708594490e-01
3.707839940408513280e-01
3.834378385432431480e-01
4.243890408145680748e-01
4.469043271565607545e-01
4.770563981508871287e-01
4.971841411265223165e-01
5.129542330485376000e-01
4.881688442847463283e-01
5.116388453131367475e-01
5.310954906771170325e-01
5.865804572775918935e-01
5.976358510719927963e-01
5.775676536494298574e-01
5.790835405438501393e-01
5.793227757413066392e-01
5.950913123214245370e-01
6.292944415578907158e-01
6.461076568994396085e-01
6.330327222656171315e-01
6.571751966606945716e-01
6.613134554491235662e-01
6.701116906300206288e-01
6.816775174943564553e-01
6.681421252986673442e-01
6.603945788364827818e-01
6.302895543019100266e-01
5.791032968722791274e-01
5.758538081359835248e-01
5.513629433056648210e-01
5.533875332098868727e-01
5.189199063102974963e-01
4.703630464647733378e-01
4.694261683342219604e-01
4.636839044254914000e-01
4.394596133284722206e-01
4.255441641107530759e-01
4.220919257685938342e-01
3.988213008471944709e-01
3.727627428068528426e-01
3.929578645382026392e-01
3.993724143609824750e-01
4.054859272546620930e-01
3.921759285441914766e-01
4.613933700988312459e-01
4.606997659746568941e-01
3.847488265347131509e-01
3.528544428894364593e-01
3.376256373889752749e-01
3.362763426167260650e-01
2.883178794200629835e-01
2.615407376077795720e-01
2.747023975306895904e-01
2.301217674582463624e-01
2.758647656206368315e-01
2.702996849644351829e-01
3.032286076518422302e-01
3.678222579788958946e-01
3.138288256336699278e-01
3.019538724280828035e-01
3.105111134188923150e-01
3.482162846142237700e-01
3.827557177877064509e-01
3.901295186802797854e-01
3.953978549650554175e-01
3.546973104262631238e-01
3.659198857561095086e-01
3.396978478829650872e-01
3.363116648188739233e-01
3.124949318977289781e-01
2.859376040955785570e-01
3.132776394669857800e-01
3.417367051563199309e-01
3.989117744741352278e-01
3.756767368328688406e-01
3.528539267567104010e-01
3.502533427978035685e-01
3.610583338948242238e-01
3.547437071898850158e-01
3.415796565104132210e-01
3.655911641045219151e-01
3.762208597296067270e-01
3.046461057174868481e-01
3.019792493414862333e-01
3.298719977156709393e-01
3.311248002886768016e-01
3.088222547365934156e-01
3.000974711333577738e-01
2.928740942604506903e-01
3.483457314047052611e-01
3.516669907823072316e-01
3.000335286013279257e-01
2.907003028308618453e-01
3.418915818831673725e-01
3.048243265523566947e-01
2.907288828658328717e-01
2.822199282393748065e-01
2.580696431019050552e-01
2.504477552067852497e-01
2.339256807861423981e-01
2.603860519892058356e-01
2.591485144251666761e-01
2.389418671992484255e-01
2.043882650206453877e-01
2.137981368602321630e-01
2.028560364816356376e-01
1.497944324893284163e-01
1.768682933222425757e-01
1.744599039459271694e-01
1.505815010421361899e-01
1.213732875736410338e-01
9.241629097252818115e-02
1.198264607390806535e-01
1.593617902075043502e-01
1.071207766938350736e-01
6.877125447199367025e-02
1.077194431455644197e-01
1.132650026923342768e-01
1.072229674920590348e-01
7.582357257864040523e-02
6.304443752519162114e-02
5.979925466648354504e-02
7.790033253937872493e-02
7.625821539318024256e-02
4.699554958408474342e-02
5.522155434871339058e-02
9.358336540757684896e-02
6.719257216740313898e-02
3.458394476490570663e-02
1.836186883876763168e-02
3.437454201337523940e-02
2.278895828018628195e-02
-1.319493651799399751e-02
-1.717955006216981273e-02
1.103431501021020188e-02
4.795467030370254707e-02
5.574895378423809500e-02
4.051390427117909643e-02
8.877017500527667471e-02
8.242307325152321840e-02
7.212384964495252571e-02
9.394764347972056617e-02
9.416373722658480383e-02
1.089980564762746268e-01
1.523070131878427047e-01
1.562007392813611895e-01
1.877463556247910836e-01
2.468611713659484563e-01
2.879879176569025701e-01
3.051999416651770547e-01
3.426678761482149227e-01
3.750494440338165703e-01
4.532295097496996106e-01
4.845259555089316272e-01
5.082336654681329779e-01
5.418693612804195148e-01
5.339057473826642752e-01
5.973281766095304146e-01
5.999667877671343019e-01
5.824045696171450404e-01
6.315462235255823176e-01
7.021787319809119632e-01
7.008145214947536505e-01
7.156453649396431471e-01
7.509460032837126375e-01
7.706333265023393997e-01
7.526008999559539170e-01
7.700817533984389840e-01
7.374446587595608893e-01
7.334799528987541173e-01
7.249698679088081299e-01
7.326314375671499901e-01
7.361679399600158380e-01
6.798830079694655470e-01
6.868771634094589240e-01
6.826287594728027708e-01
6.456759392852254864e-01
6.632348543273508534e-01
6.663638823615140039e-01
6.435256132502528148e-01
6.540093787170303541e-01
6.279573587812078417e-01
6.328864128680442569e-01
6.262352139030630260e-01
5.747020777030222849e-01
6.107327166674101360e-01
5.890418861437162201e-01
6.230067684714960530e-01
5.777705194195260630e-01
5.536541554070317783e-01
5.936555004305225092e-01
5.536212365350070552e-01
5.122483589379029922e-01
5.049681238945639139e-01
4.900955717169750980e-01
5.027880916744886797e-01
5.271218239338982814e-01
5.225581695599545995e-01
4.755989267971504897e-01
4.608211348524038908e-01
4.409294379557966437e-01
4.362693860313539007e-01
4.085646107628728707e-01
3.920373794090568076e-01
3.799101603475977806e-01
3.748852376883244908e-01
3.782778449981279434e-01
3.830316724203819967e-01
4.078506589826384476e-01
4.443598948099187207e-01
4.676722124579122397e-01
4.477784197870654515e-01
4.026951021917575813e-01
3.979052869801166237e-01
3.979379174303772637e-01
3.942929281489300775e-01
4.297066882854650993e-01
4.581362826253534970e-01
4.552529097178934503e-01
4.552833080062220761e-01
4.794982366849684929e-01
4.593991090885643502e-01
4.371731194932101938e-01
4.384143260550121823e-01
4.455930389425326599e-01
4.570550673285443954e-01
4.428324694651210036e-01
4.770374108142202418e-01
4.867859079084050355e-01
4.208738543589720105e-01
3.897941067656542913e-01
4.338696613372845512e-01
4.374088257302218841e-01
4.048335907750117979e-01
3.675952971994357887e-01
3.658471367021533527e-01
3.818745442489740460e-01
3.739077863998874207e-01
3.886756739863143073e-01
3.925818426906361180e-01
3.696420992200618594e-01
3.335154249120415582e-01
3.069202474531909086e-01
3.617012664390614196e-01
3.753452149759018974e-01
3.432410882899578075e-01
3.310917438679878422e-01
2.795713944479125690e-01
2.809154776458719915e-01
3.177410783643952463e-01
2.924227084345422667e-01
2.899637222786326518e-01
3.119135792039470223e-01
2.623450995996834401e-01
2.573901031135537032e-01
2.578395828306082604e-01
2.703213219775176257e-01
2.464865495890093683e-01
2.493366844458178022e-01
2.803381595624063749e-01
2.642526945140521444e-01
2.353367863293884255e-01
2.111170887908525029e-01
2.165325713622442694e-01
2.250236753168862180e-01
1.784032186385705321e-01
1.447287964189768183e-01
1.065162381687535798e-01
9.999235745867682268e-02
9.457135978183792147e-02
9.639604665530937533e-02
6.003114591005501155e-02
5.118324842343284498e-02
6.138027180983236797e-02
8.307288729207125411e-02
1.248582271683956746e-01
1.110236581487525770e-01
1.214646092280962930e-01
1.084465647865346799e-01
9.694802731663504369e-02
9.156609035188442713e-02
1.421896265128410330e-01
1.541458174193990061e-01
1.099395535810046287e-01
5.638553407317204585e-02
1.036554755845204602e-02
1.810574809708234006e-02
2.047212740005123488e-02
4.592893894273536101e-03
3.819764315827024054e-03
3.064951899486523246e-03
2.076165170643082952e-02
-3.924866134601176504e-03
3.235184777478464918e-02
6.378223414907364941e-02
2.555416657769174135e-02
3.867978956574235488e-02
7.507030820079525768e-02
9.327452270453873151e-02
8.157166984715262525e-02
9.893081922838850573e-02
1.532643973492681388e-01
1.717252704270479102e-01
2.031933913881024956e-01
2.121267689194880068e-01
2.522387871478684040e-01
2.765213166668870626e-01
2.932444151109880326e-01
3.679761119285177018e-01
4.027246196800023936e-01
3.795006698081198615e-01
4.156065092343870226e-01
4.568360417581008304e-01
4.786127574683549657e-01
5.115426967300891192e-01
5.114075006669484003e-01
5.406024958748907316e-01
5.882443290083740894e-01
5.915347599091216324e-01
6.067857125249899175e-01
6.372009832661806872e-01
6.452886539041640113e-01
6.887331907280852539e-01
6.893677382496680162e-01
6.699382174665933221e-01
6.773921142095784553e-01
7.508012540539715785e-01
7.272632765934717858e-01
6.864662596618229529e-01
6.813227761118351156e-01
6.749085003210573142e-01
7.259079178440523972e-01
7.428210193589757093e-01
6.715548282106538203e-01
6.512278803424375040e-01
6.536504720934235291e-01
6.117718644181473486e-01
5.681326556428580865e-01
6.369152494933560948e-01
5.870067365887253752e-01
5.811106120371429817e-01
5.696041766359983827e-01
5.318356818987183265e-01
5.227921601971401433e-01
5.497156276724185497e-01
5.369659682217320373e-01
5.300138365534035056e-01
5.498978190959890044e-01
5.340716732054382465e-01
4.560566544437746894e-01
4.166790867375272378e-01
3.704315944343377076e-01
3.709351960878694010e-01
3.955137774632714875e-01
3.787545887637022712e-01
4.259226012967320396e-01
3.870895169370543454e-01
4.181631409437142066e-01
4.184775483439152621e-01
4.590300507774548455e-01
4.390794460880277361e-01
4.100480746278496458e-01
3.574633671835367732e-01
3.137701521985720166e-01
3.170654832893204378e-01
3.803736351191189247e-01
3.804842727961961213e-01
3.346658738450153381e-01
3.208587110278364185e-01
3.753694088855029642e-01
3.855547173112908732e-01
3.697795665815701294e-01
4.225658003901620052e-01
4.304108837092129325e-01
4.220189480461827847e-01
4.083919533815394409e-01
4.107053557327807192e-01
4.321956081409160100e-01
4.162315342947410235e-01
4.411377333730431838e-01
4.225613136781924961e-01
3.962317735889627768e-01
4.203121192343375334e-01
3.861140205719179597e-01
3.730051306612629514e-01
3.399275954534513033e-01
3.837423970561533171e-01
4.048759120707940973e-01
3.238741645821250903e-01
3.291959995330684952e-01
3.387118973292528312e-01
3.263570149470597093e-01
3.135176006781757452e-01
3.428986796012329363e-01
3.355869727224189969e-01
3.164541063611725491e-01
3.134027992286466668e-01
2.828669655164311458e-01
2.767976081443607739e-01
2.384409700930001652e-01
2.384557678758489063e-01
2.173331343541938243e-01
2.193143198683198958e-01
2.263076826159044208e-01
2.072402782718646141e-01
2.139317600510007855e-01
1.939646000654446922e-01
1.570561826031192654e-01
1.397774592402521998e-01
1.324902215132450767e-01
1.222889461086017898e-01
1.512439278576516999e-01
1.448695269520970941e-01
1.314908252640500375e-01
1.295362101688375400e-01
1.218615050348333673e-01
1.186141839661821185e-01
1.447239142478527474e-01
1.201706031357327176e-01
1.121356848151791041e-01
1.459015150758698476e-01
1.382915098932422926e-01
1.477573665100772315e-01
9.958194735966498234e-02
1.187691298711746335e-01
1.039706479381748705e-01
6.041265242909028832e-02
2.355442875579754833e-02
5.712315690667678358e-04
-1.465257572278903971e-02
2.412693469024453433e-02
5.263919552020165926e-02
1.592043384162509026e-02
2.203333035988950042e-02
-3.060762181477685601e-03
5.847143822022411036e-02
2.163890501028436705e-02
4.290774844914493902e-02
6.962073218208433834e-02
9.957855394167820784e-02
1.096318042720676594e-01
6.268067308450854525e-02
7.730797744306619479e-02
5.732832117479980116e-02
2.728292188349948702e-02
3.447286558824426417e-02
9.724855422612919964e-02
1.107241287550559672e-01
1.487038875342267807e-01
1.781899146993240479e-01
2.333298543195125585e-01
2.526014958446932690e-01
2.932306323423683470e-01
3.142938102730152838e-01
2.809228452524008546e-01
3.255592013658919481e-01
3.665552060990300842e-01
3.282082900545669202e-01
3.897425722882685295e-01
4.738932276477393901e-01
5.132273186065788861e-01
5.153181865798721617e-01
5.525267333541827863e-01
5.636731191236795668e-01
5.458397077131691422e-01
6.051246345871179599e-01
6.573446544339669462e-01
7.177384698639934779e-01
7.457407684860579700e-01
7.595687803999682242e-01
7.722653307516058607e-01
7.275503531591073214e-01
7.100687083932074595e-01
7.364598305891832952e-01
7.150755713981488126e-01
7.093136211774911937e-01
6.836177164949208684e-01
6.634816124936051551e-01
6.758527898599191452e-01
6.744366043099246921e-01
6.466108532358060268e-01
6.251276768976178344e-01
5.984661670673335765e-01
5.648806943706783379e-01
6.060122380213707194e-01
6.266973803785194086e-01
6.064962173411363455e-01
5.166026453144458852e-01
5.066672029209174921e-01
4.840265088359422818e-01
4.875549149633834900e-01
4.668222881701805105e-01
4.646518633436707013e-01
4.463484052392750479e-01
4.722011330091931969e-01
4.465755306322169438e-01
4.644552186535695903e-01
4.362116662558341851e-01
4.022917592047751678e-01
3.663926716417145180e-01
3.085830083512215993e-01
3.375512248364751500e-01
3.370012683896667083e-01
3.428136191258535082e-01
3.589955987463878118e-01
3.823594740230687461e-01
3.698938508551786741e-01
3.472483485736448938e-01
3.668576161040193462e-01
3.934483580765878452e-01
4.680323823465500355e-01
3.940858971719626291e-01
3.085420661041054502e-01
3.434879689445022311e-01
3.949954901267860863e-01
3.815649156331051284e-01
4.243652118158162678e-01
4.050100685133922740e-01
3.876086132985157584e-01
3.548213756317490364e-01
3.850416050420853442e-01
4.070967176764003215e-01
3.760266381201335384e-01
3.538470252296929131e-01
3.248326005634050717e-01
3.111933121611448194e-01
3.264895149894170290e-01
3.362024076385395910e-01
3.562388825732831776e-01
3.184930027614462644e-01
3.119705881952257731e-01
3.033741873064630390e-01
3.149401414914031472e-01
3.209947151727207126e-01
3.469332939243722769e-01
3.237607760917301514e-01
3.043167015750860016e-01
2.970210033825807505e-01
3.038878811423832427e-01
3.437097859607329275e-01
2.949070270885147949e-01
3.061344173279617609e-01
3.051968141132457846e-01
3.109166882332663473e-01
3.427513255161788175e-01
2.854095310513554140e-01
2.307006738167925730e-01
2.509444205217440937e-01
2.618454994654174084e-01
2.391100069809120321e-01
2.470081318424728334e-01
2.364634116769981920e-01
2.221937753053608300e-01
2.130868975226947182e-01
2.031153288449616123e-01
2.289728887779550193e-01
2.391273794159501642e-01
2.121478013042766841e-01
1.908056163386580295e-01
1.797420786076998622e-01
1.674621249253727961e-01
1.551764771078739669e-01
1.303082177561148969e-01
1.489717955358109136e-01
1.268355616181053858e-01
8.616052287255919484e-02
9.511003946770085760e-02
7.660956246304967410e-02
1.110946305036336207e-01
1.016224289641538964e-01
4.538690517756842346e-02
2.959596066865459105e-02
3.678966476028297516e-02
2.473342374035237753e-02
4.305049372459034129e-02
4.846945140665543522e-02
6.462596353668692561e-02
1.279417816996130108e-01
8.764097434145551313e-02
1.015824786531961954e-01
1.185124695880461348e-01
6.902232680389129571e-02
3.113829665019228476e-02
4.383810922845084168e-02
5.481294877634397544e-02
6.274211372967246347e-02
5.411260436501046794e-02
1.057152339286184656e-01
1.189194923219010491e-01
1.100340241763406307e-01
1.342936450548549987e-01
2.004870411011058784e-01
2.595108981691964800e-01
2.869453064478294513e-01
2.859961152126362371e-01
2.916001304303508790e-01
3.187537313762086044e-01
3.661237189452928864e-01
4.592468842015626773e-01
4.774151250083153997e-01
4.812660159476381816e-01
4.847524106876274774e-01
4.898475776440087137e-01
5.373917248793086410e-01
5.591366796614544166e-01
5.964426280750527720e-01
6.053424039252246480e-01
6.266563014187059855e-01
6.486581000480381443e-01
6.201946093000935134e-01
6.514685886360711553e-01
6.632424403894547904e-01
6.406931111121602074e-01
6.425663467368092352e-01
6.325386491884736895e-01
6.583069067537787866e-01
6.870460803636467828e-01
7.001960564809948107e-01
6.391533774890337805e-01
5.908752745350958069e-01
5.520134679419849144e-01
5.720844618883076382e-01
5.552137096196366750e-01
5.423630973374020670e-01
5.070855233175011190e-01
5.054148102681361721e-01
4.925865520433425626e-01
4.512191870380034553e-01
4.275669562702014148e-01
4.388366887621646395e-01
4.401050954884644928e-01
4.124058426684631407e-01
4.197653051143946379e-01
3.785819234333248073e-01
3.227951684042817404e-01
3.214482863724580364e-01
3.248185819912061123e-01
3.407495469361113694e-01
3.814048862990240263e-01
3.695287521122707641e-01
3.197134643061398385e-01
2.980309702140449546e-01
3.033934309674778951e-01
2.903101821680344474e-01
2.491551876335174331e-01
2.871784418324800359e-01
2.829293976050154535e-01
2.919532981684326844e-01
2.759385163175527844e-01
2.918505921418046434e-01
3.122123764941930890e-01
3.205976015273689916e-01
3.076188544203005693e-01
2.784143942327740873e-01
2.981733216928242336e-01
2.912484624171600145e-01
3.145795260584015041e-01
3.387957050640005852e-01
3.385713485605112982e-01
3.250802707606635922e-01
3.565840088071736136e-01
3.132416064738169359e-01
3.064393066070945637e-01
3.581725657978132027e-01
3.525604636838673422e-01
3.616642467371080638e-01
3.716962954377291406e-01
3.783961011052354717e-01
3.548557329491349721e-01
3.006670970452483549e-01
2.694348672162402702e-01
2.498972873944067530e-01
2.635889158244552055e-01
2.763192382460312180e-01
2.348746651388751161e-01
2.194972288191015530e-01
2.122032753702772501e-01
2.128558115771144454e-01
2.072743799673691933e-01
1.780372092058405964e-01
1.700772696609939016e-01
1.748180377286092657e-01
1.749417489367235956e-01
1.899191468237141633e-01
1.905736518438590765e-01
1.657349366287462211e-01
1.501266601511190013e-01
1.589439687090855591e-01
1.555552767024462324e-01
1.293004290798807632e-01
1.221613485802827970e-01
1.253594664814650927e-01
1.190921620209677845e-01
1.204863051709377797e-01
1.065666029825570460e-01
9.441466551872040869e-02
6.976348944601712398e-02
6.852879281874164896e-02
7.168014795003134487e-02
1.613546970529673719e-02
7.537563832972604683e-03
2.810899875664141234e-02
-3.222911868076883124e-03
-2.407804434580033959e-02
-5.943716081514029831e-02
-4.922353676194642091e-02
-4.581322991927550686e-02
-4.646762951031613298e-02
-6.012365036223496495e-02
-6.084894079151188795e-02
-6.638814644569326906e-02
-5.507922243735059731e-02
-1.561680958682206376e-02
-1.501363835933698654e-02
-4.588666907366895087e-02
-3.522303916877419366e-02
-8.200934264957325179e-03
3.552300649844951277e-03
-2.128597330989673991e-02
-3.348220270103911128e-02
-8.628842381862626004e-03
-6.377605103793371200e-02
-6.121675823040424735e-02
-5.500249361825287203e-02
-2.293503297128357196e-02
-2.657785897698151933e-02
-1.937083917980253478e-03
-1.008481260222890419e-02
2.199092844785029144e-02
6.087285935441291707e-02
5.059205275781875066e-02
4.214211355641615808e-02
6.652743975581082436e-02
6.720118493193603937e-02
1.177253189555644147e-01
1.391912201202307464e-01
1.806779526051757179e-01
1.982338440476147379e-01
1.945091313150892898e-01
2.528017307253727641e-01
2.895482292605348063e-01
3.078128249211278256e-01
3.536501051931343342e-01
3.970264390371453511e-01
4.422505814550721226e-01
4.916724706576465209e-01
5.481366706019618062e-01
6.058554879152998618e-01
6.476769635404076020e-01
6.371891865574511593e-01
6.490609939163017872e-01
6.249163910103685549e-01
5.685228161136951508e-01
6.123686041110741884e-01
6.317792164088857909e-01
6.274200836738232923e-01
6.579056242343722660e-01
6.788620914797940387e-01
6.453012464385039504e-01
6.335303530125908633e-01
6.230919134286986294e-01
6.421490509908350797e-01
6.142470126480397141e-01
5.561333292508228165e-01
5.164358107455796487e-01
5.275507832466252989e-01
5.211322056490952370e-01
4.910190258485060411e-01
4.798719903814085419e-01
4.795733757716196255e-01
4.165263332392368234e-01
4.315556331321568906e-01
4.225037338189798763e-01
4.546765577987428864e-01
4.358209389043036230e-01
3.928994350617825426e-01
4.102627068873079264e-01
4.081875695984527042e-01
4.044979341310461218e-01
3.372040979027858265e-01
3.652623895684204980e-01
3.813538619842345989e-01
3.500378261828266391e-01
3.388560563615285459e-01
3.474979454527920564e-01
3.306823242056908252e-01
3.183390015504843351e-01
3.169902982940750458e-01
3.378059146422470183e-01
3.300518020972492139e-01
3.074702932619393092e-01
3.426006774014141998e-01
3.446637083536292501e-01
3.689948624872340099e-01
3.492812834378588027e-01
3.355012883224710585e-01
3.732168607852976439e-01
3.493647151425282593e-01
3.165202951533681031e-01
3.316425411036024729e-01
3.651959532176938250e-01
3.202506172466652590e-01
3.252222143133285948e-01
3.517252439860513169e-01
3.493664489775963333e-01
3.394575672977215852e-01
3.557607392632347598e-01
3.699165965017602864e-01
3.591115356512908363e-01
3.878799633676900394e-01
3.808992954198887615e-01
3.787453592297863048e-01
3.416433874631727985e-01
2.800109549791806041e-01
3.281940631984445744e-01
3.240864690039337304e-01
2.981380059834334850e-01
3.214618375874453982e-01
2.995614748342338984e-01
2.713354701891390053e-01
2.788405885231710069e-01
2.815532743361183754e-01
2.879970789469953329e-01
2.575844347600343420e-01
2.183442776844528588e-01
2.192483739356659023e-01
2.244280775666007699e-01
2.389626180029551239e-01
2.386224939302725168e-01
2.664884514263904935e-01
2.182880453550695987e-01
1.945523952625369535e-01
1.910950381027457790e-01
2.196121945666371922e-01
1.988571095340941342e-01
2.051623077304638443e-01
1.884736932252136232e-01
1.703664911096704204e-01
1.844079936904524375e-01
2.123347337403712620e-01
1.947628696943785043e-01
1.932095383097391927e-01
1.587434776210281118e-01
1.071421347931851703e-01
9.931278537601095913e-02
1.366795086389555047e-01
1.699226997219575319e-01
1.626715590177533755e-01
1.087177947729723870e-01
8.449992269623633756e-02
4.662083168805747357e-02
4.943810107366228279e-02
6.322762930743354437e-02
9.059711359525071672e-02
9.386068248792853175e-02
6.396969612989360232e-02
2.577369573231395178e-02
2.704726224512294525e-02
3.211979354209372473e-02
2.887058228413965505e-02
1.465252083648041666e-02
-1.796139503706779134e-02
-1.602371540203526359e-02
1.072444216748576554e-02
2.868038113558432287e-02
-1.314946017082955880e-02
-3.718681526787715602e-02
-2.506464503364770266e-02
-1.967407053041180659e-02
2.219931481176745658e-02
5.519346016599990801e-02
4.894537429006501350e-02
6.147222882035859037e-02
8.780708866209049890e-02
6.594363018555562950e-02
1.213387944806943869e-01
1.494208859340827866e-01
1.227100969844431844e-01
1.425487393707762507e-01
1.643412566505669248e-01
1.298630964783897834e-01
1.604653210739157287e-01
2.415280556683510882e-01
2.845511211956037734e-01
2.568119011529608198e-01
2.440555543442176345e-01
2.839672242851408734e-01
3.582467768013133935e-01
4.077378472003990728e-01
4.964062016903527663e-01
4.897274514829527137e-01
4.388909090640746857e-01
4.757158189755678057e-01
5.250340923473519883e-01
5.776233757879880581e-01
6.067775351778601500e-01
6.320724277341345232e-01
6.486791651988085272e-01
6.496537581502143111e-01
6.362926790663380183e-01
6.847397585974918099e-01
7.098282317022409638e-01
7.281764098291454435e-01
7.392825203623296648e-01
7.409293477236111869e-01
7.231355676293415025e-01
7.188569602346180920e-01
7.490089882793532494e-01
7.131301136548244823e-01
7.039649424847300718e-01
6.659338178146679832e-01
6.421750374812715823e-01
6.484250698531314194e-01
6.317175322593003850e-01
6.197126377912965944e-01
6.091859252801128388e-01
5.579114684496548904e-01
5.348590454136471495e-01
5.146675258653555796e-01
4.939373842925998681e-01
4.887289627567196759e-01
4.881424214695246344e-01
4.717833832568363306e-01
4.333879963800024715e-01
4.225458411801324976e-01
4.058099214562878032e-01
4.033466174425785478e-01
3.908683937680840215e-01
3.436117895263812172e-01
3.179696586217290455e-01
3.230431023138828905e-01
3.440501117305825862e-01
3.590178820918489278e-01
3.853603402724101734e-01
3.583490660313004561e-01
3.535818473100830750e-01
3.668869454967678134e-01
3.614232116005136053e-01
3.176317143301966572e-01
3.084110512620488187e-01
3.062634789844777550e-01
3.365459006995973890e-01
3.422262007409471729e-01
3.303824810334883288e-01
3.107947372109799988e-01
3.401713996077628810e-01
3.182496068717219351e-01
3.256241172887398005e-01
3.328223226828935788e-01
3.871754182295867874e-01
3.888484728170275573e-01
3.545493643879015777e-01
3.525016929861587989e-01
3.973927869693892334e-01
3.964530574516580974e-01
3.625960905809744173e-01
3.924279053913381499e-01
3.978585521032452776e-01
4.305567829545085545e-01
4.142370560865088480e-01
4.064673566361466372e-01
3.437013774776700448e-01
3.388071076742829590e-01
3.434676039395413993e-01
3.750406883380255629e-01
4.136550122536600815e-01
3.930699830448892151e-01
3.639165268794190000e-01
3.221419930547546606e-01
2.939939888166329673e-01
2.894294036569050599e-01
2.951579473105713780e-01
3.236394662968370972e-01
2.873186089034184265e-01
2.844607086943320429e-01
2.626070214735387043e-01
2.752632574876563987e-01
2.164839901548899492e-01
1.976132035486071747e-01
2.126707591432711875e-01
2.168339237914896911e-01
2.475692186739726630e-01
2.136282037063687023e-01
1.732189473571132954e-01
1.628451905815680445e-01
1.583916374458360921e-01
1.892798308308326904e-01
2.277260173277110555e-01
2.332354195986851009e-01
1.986284429930277040e-01
2.091547866240525133e-01
2.298491431578919553e-01
1.952773788009520839e-01
2.045832149311615500e-01
2.110809396584014674e-01
1.728122973327109735e-01
1.394495774822452905e-01
1.224380831322558622e-01
1.482173016085682193e-01
1.092618619189729412e-01
1.159639069245290699e-01
6.759865630499822808e-02
1.072047142863745417e-02
8.213484217382831243e-02
4.437037962507420219e-02
-6.698960036868636947e-03
-2.233368193209282759e-02
-5.279873007005148056e-02
-8.403476767161872918e-02
-7.826496121400564054e-02
-7.422095621947394362e-02
-2.049966763460566582e-02
-2.245547031527218851e-02
-4.765810271016818894e-02
-5.982830205013407732e-02
-2.912110552294947322e-02
-9.035521988053833720e-02
-7.597880283642979848e-02
-7.232883636788686732e-02
-7.103015355001116027e-02
-3.339325194787071821e-02
-5.862934698392201910e-02
-8.956722888742943423e-02
-1.042036189173577154e-01
-7.640511508753586312e-02
-3.096537788790647283e-02
9.079095565746209129e-03
-7.942750106423410172e-03
3.911731086502778787e-03
3.901929159148564974e-02
1.035250120959411713e-01
1.485289755200404349e-01
2.004132660733082272e-01
2.520204681237870337e-01
2.228683870156612790e-01
2.351406953701137004e-01
2.115948535676718811e-01
1.947375363638734758e-01
2.080725195812330175e-01
2.039856311369332986e-01
2.028762076750846299e-01
1.880322109834756117e-01
1.711950376348997105e-01
1.835933329461335028e-01
1.970860888121575005e-01
1.593266841582267890e-01
1.169249029543850682e-01
9.203136633495950791e-02
1.214527904808799103e-01
1.442331808405205307e-01
1.217220845511232247e-01
9.737186072158471317e-02
1.399113721186312498e-01
1.833514422877838279e-01
1.758833272496061750e-01
1.791559015835805790e-01
2.288637871858888451e-01
2.000390844538253166e-01
1.951068575435659369e-01
1.731716095515092868e-01
2.093314718963413812e-01
2.064299204138382859e-01
2.460122525925834691e-01
1.710819936239019179e-01
1.894927853783531235e-01
1.345511682352187044e-01
1.245922108926637017e-01
1.518655290023321891e-01
1.300328850293819283e-01
1.250034258689170230e-01
1.299850600810028289e-01
9.357645434238347215e-02
9.650546040086555033e-02
1.083081531345992388e-01
9.566642089999054244e-02
6.386276464884321769e-02
9.531197964882473506e-02
6.630378685238071113e-02
2.990488633805272328e-02
2.923825480491830039e-02
1.084329457160913834e-02
1.729641475532267894e-02
1.776796209523637954e-02
-4.226182556382063887e-04
2.783430784904423333e-02
2.821782056143883055e-02
-2.141120822507698931e-03
1.319705003734209132e-02
4.360293391464583473e-02
3.283193922619914024e-02
3.422790017760246606e-02
6.477622650714563723e-02
8.546749489714543235e-02
8.839555137947101293e-02
1.070196973392949502e-01
1.275660576582334227e-01
1.735750200807714139e-01
1.826812223101236810e-01
2.300760099228435218e-01
2.599151118467487587e-01
2.422913684314072502e-01
1.868420725329165422e-01
1.873832807252552302e-01
2.359737045665872279e-01
2.595166311695317196e-01
2.480998389941193594e-01
2.819997420068518501e-01
2.416451492487133312e-01
1.991515216082329620e-01
1.226140536787345969e-01
1.153638897265803209e-01
1.394698618338440776e-01
1.394141051070248716e-01
8.273593732420281288e-02
1.066906799245203596e-01
1.015637244376122739e-01
9.456976047774776073e-02
1.350377115692744934e-01
1.071945923533186573e-01
9.844673169026811610e-02
1.198294882861864613e-01
1.240957537126745475e-01
1.397309843759447778e-01
1.744844814674737510e-01
1.485105858323023387e-01
1.372588771265357555e-01
1.365798062516189182e-01
1.284437222970903070e-01
1.055201432913583509e-01
9.187492945460982996e-02
7.568980175709988378e-02
4.078276578083659537e-02
6.664003007681326696e-02
9.538103375974223141e-02
6.164221231042091298e-02
7.106167523112386086e-02
8.900387925355184027e-02
4.094105543527229440e-02
1.350403343410585232e-02
-3.444816742680704980e-02
-4.218635943344629241e-02
3.162633939861332621e-02
3.083085976153013275e-02
9.823841884796808560e-03
1.399535407326954646e-02
2.414776879249738023e-02
1.931025916331433750e-02
2.795065662021983810e-02
4.807061185060484965e-02
7.021957904741704670e-02
1.004838897884968302e-01
9.690122874495990524e-02
8.572793168143647002e-02
1.711607839946291676e-01
2.178054063484431702e-01
1.949817887303715302e-01
1.827783651388539266e-01
1.961531840775142255e-01
2.211429149424055385e-01
2.647170170778469500e-01
2.782692930078278781e-01
2.652596542045537187e-01
2.723306520266396413e-01
2.573121118796490858e-01
2.838660851245523586e-01
3.037503748157367456e-01
2.681069336368053224e-01
2.437405187081558289e-01
2.244328943893673656e-01
2.280697865220420728e-01
2.198401696173314657e-01
2.291609969682639747e-01
2.300320052682867378e-01
2.166284567538474537e-01
2.133187457286701283e-01
1.494616782502586338e-01
1.257205726486792796e-01
1.682399772205734889e-01
1.992571830317046711e-01
1.771196599560815876e-01
1.904558110115133762e-01
2.050792438030716869e-01
2.135698402662460638e-01
2.352297233378112251e-01
2.096825708469468585e-01
1.762460790806582855e-01
2.180720471514671632e-01
1.856954784126022273e-01
2.213730376369567876e-01
2.035636610260252444e-01
2.105989052957782659e-01
2.207316939968234915e-01
1.969607466098804160e-01
1.991393401173773281e-01
2.076484315892139776e-01
1.809564960898474850e-01
1.814122347619460673e-01
1.506589218762585392e-01
9.335247811952623875e-02
7.896044805106131048e-02
6.417517164842272137e-02
8.447054672075163251e-02
9.941207215537258002e-02
6.064707476501781519e-02
5.628310966457100717e-02
9.185177142909299597e-02
8.956566186875472568e-02
5.220540279319904609e-02
1.794950321150266814e-02
5.870684387645728336e-02
5.208551491253550492e-02
6.586300774494882604e-02
5.569513936150339434e-02
4.888686615772635385e-02
5.232538400326901262e-02
9.848859924192571169e-03
1.564182150694093387e-02
5.194561785424184341e-03
-8.117329573689940556e-03
-1.291173194809621359e-02
-1.868819202305510921e-02
-2.472241272652690031e-02
-1.252356581231156216e-02
8.062426240329774452e-03
5.674653516598788389e-02
6.053148069202288206e-02
4.096716471950370697e-02
4.237211184912648143e-02
6.580188935574410314e-02
1.122788390236953426e-01
9.967235415567241019e-02
7.094797939912156348e-02
3.530731712585401250e-02
4.580583438654638878e-02
6.862190111778668222e-02
9.923702045749822898e-02
5.564687157223627972e-02
6.263692507461049441e-02
9.088963890614135122e-02
1.584483920788263278e-01
2.339445605530396932e-01
2.893934990254858342e-01
2.993329931446502279e-01
3.452488618352196337e-01
3.575065300874811780e-01
3.699364689217629065e-01
4.188967765414381983e-01
4.107017815021063445e-01
4.375881110141840447e-01
5.140995129428507227e-01
5.746749794233989572e-01
5.932393420522285021e-01
6.342905294662747329e-01
6.505491709906994213e-01
6.710866967609586675e-01
6.609509007354660293e-01
7.388869997013891577e-01
7.630712661142790010e-01
7.253986892495791761e-01
6.935493988881004102e-01
7.082070199887672279e-01
7.568087172094161152e-01
7.418321720613898496e-01
7.382085942424344571e-01
7.281908001735883929e-01
7.480419139356099256e-01
7.492690214430806073e-01
7.894180989943831994e-01
8.290257144843076187e-01
8.487580371389190637e-01
8.341247486735962058e-01
8.578907566377533822e-01
8.662627159820660561e-01
8.622614201532610156e-01
8.476351461940473397e-01
8.047636952668673072e-01
8.117638956777813997e-01
7.941963115811054852e-01
8.195644808943807202e-01
7.655734219221401737e-01
7.223673421734763123e-01
6.784784751936272507e-01
6.319863765583713100e-01
6.473320571250188449e-01
6.073045024045022888e-01
5.845186570322077335e-01
5.885036669455000480e-01
5.908502003330193819e-01
6.022826217893595402e-01
5.763363851378958680e-01
5.967707159266668615e-01
5.723027785966562364e-01
5.451116644240414644e-01
5.333436637081355736e-01
4.987839003119690640e-01
4.413775064605711118e-01
4.581837852960234381e-01
4.760990849131500058e-01
4.880416640427946984e-01
4.538404958913082043e-01
4.335214548491259090e-01
4.086027097081373904e-01
3.984762038816070384e-01
4.225866103863630818e-01
4.427894207602148802e-01
4.236781936949410299e-01
3.915285990318315701e-01
3.524246263876801288e-01
3.647430518113862763e-01
3.790608243716170334e-01
3.868657521408326305e-01
3.908270641305794935e-01
3.990900576311673387e-01
3.927942034563111084e-01
4.049736945544976097e-01
3.915035101427108422e-01
3.474907001352938729e-01
3.476924894408691680e-01
3.353824000037471942e-01
3.419737719972963386e-01
3.676277131680417143e-01
3.454821675400243097e-01
3.285845422140337146e-01
3.754198856813256713e-01
3.565019515632251723e-01
3.793686304681794796e-01
4.355094683642239950e-01
4.185856856488680000e-01
4.269486957317849551e-01
3.836519645503278508e-01
4.117956152033656614e-01
3.890698853806678348e-01
3.864986924290574888e-01
3.864403989880104140e-01
4.058478563140189843e-01
3.994702251817924266e-01
4.010598403777011489e-01
4.271185325964762525e-01
3.984791795212808130e-01
4.127541063611936956e-01
4.632722485367247178e-01
4.518633231641187020e-01
4.198012995575688411e-01
4.070908202589804681e-01
4.159002524782505206e-01
4.100688085412383388e-01
3.936703926264418230e-01
3.948283590065005955e-01
3.376375385006432639e-01
3.515756984156147569e-01
3.469458087779691002e-01
3.256678978500444632e-01
3.540158205449953632e-01
3.491970099391232263e-01
3.226579313192833864e-01
2.982303033521703783e-01
2.806019977339036520e-01
2.707328313133428033e-01
3.366158759013442303e-01
3.633068433996688995e-01
3.671105233123073686e-01
3.472216392977866550e-01
3.231372414178692587e-01
3.216304874995624119e-01
3.424337775717908872e-01
3.044691598817123035e-01
2.728928870336391199e-01
2.701080177792949955e-01
2.471070237879367526e-01
2.612373661539569847e-01
2.626328800513422768e-01
2.459151269252970173e-01
2.364942802070429673e-01
2.249132340823565279e-01
2.070995588685994038e-01
1.849628387967555965e-01
2.174429853930010259e-01
1.981057990919766754e-01
1.655435978510871875e-01
1.385869242095559284e-01
1.235709453669751323e-01
1.161629400986716465e-01
1.194044342690700061e-01
1.071685323584357363e-01
1.269791753008519264e-01
1.210110862617131966e-01
1.024362681001392827e-01
1.412141158252395168e-01
1.215432160580274812e-01
5.931719356574022967e-02
7.528725012394488214e-02
2.951405912534422332e-02
6.111799668763061300e-02
5.365419001342098398e-02
2.147962448311101571e-03
2.447215067882636819e-02
1.072633898352909343e-02
2.853071279854081654e-02
3.461325382435494202e-02
2.966377452050104890e-02
2.978773061777032632e-02
5.404472415351486980e-02
4.977618524192770760e-02
4.496232707507435283e-02
3.807245409110179141e-02
6.158713280368157544e-02
5.639856927013318921e-02
2.118569588759428718e-02
-1.304325392765823613e-02
1.980283948914488001e-03
6.707951434254862122e-02
8.726674513885654405e-02
1.088694657166698332e-01
1.024017472802147277e-01
1.477920208105112376e-01
2.191295991151999967e-01
2.542785246059436899e-01
2.564710503258224028e-01
2.366308610127967615e-01
2.207580234905243410e-01
2.574277814895776784e-01
2.726846755882130768e-01
3.351548109581607982e-01
4.093634782612606826e-01
4.469656502640156903e-01
4.237923988285591803e-01
4.275710925823278385e-01
4.804629300289853244e-01
5.204028958199975463e-01
5.755212053921642257e-01
5.538958648176500743e-01
5.551166056201588539e-01
5.872454593018821001e-01
6.159224347629514984e-01
6.302171781821773733e-01
6.350447504084620887e-01
6.514562517637507710e-01
6.612900619478347952e-01
6.645609603088933337e-01
6.466028865840532935e-01
6.521567225167768100e-01
6.445833988553180127e-01
6.160295152336281443e-01
5.706937700166549998e-01
6.093728854524207428e-01
5.683170525683299834e-01
5.323076955807389821e-01
5.372301987945545809e-01
5.579416470896739755e-01
5.100333509234697971e-01
4.444778780779647942e-01
4.306021284683558270e-01
4.670120154823032554e-01
4.437894297410460709e-01
4.365260292608802994e-01
4.195440875923274748e-01
3.889129496063268299e-01
3.926164592436569012e-01
4.015794101976372099e-01
3.811974176928188962e-01
3.509127525993846475e-01
3.254983364133350876e-01
3.089982713178274776e-01
3.069567851731913044e-01
2.526314129580190526e-01
2.302944064157497750e-01
2.343360907981062446e-01
2.660028822636951729e-01
2.834753461727613777e-01
3.067348324474732379e-01
3.008261730714219540e-01
2.997052665769482926e-01
3.281666661140174579e-01
3.195738189999771661e-01
3.214066896400600837e-01
3.475958215995937350e-01
3.490471698189747118e-01
3.130503878410504925e-01
2.800054443312501862e-01
2.782261728383488841e-01
2.947241460448038475e-01
2.956635341082181623e-01
2.872316294988563889e-01
2.840568668262409835e-01
2.551765807781269935e-01
2.781973294701008959e-01
2.867037910647042276e-01
2.862927371576238222e-01
2.823506977362307269e-01
2.859014866464209548e-01
2.740303059127529028e-01
2.828829864217653478e-01
3.242492770091184862e-01
3.267338606476232754e-01
3.049449162087040643e-01
3.075684817947996752e-01
3.115404405727324466e-01
2.856285336941248865e-01
2.555677099339523362e-01
2.491503315988566059e-01
2.107921895584913830e-01
2.129174984537048343e-01
1.813534408469913983e-01
1.917980436197816718e-01
1.775354134854681964e-01
1.971721701437568197e-01
2.396333152696684954e-01
2.351701285238042560e-01
2.174782474956372391e-01
1.890769685199675532e-01
2.140494106358763471e-01
2.000724456520070194e-01
1.722574055159398210e-01
1.771423018048109421e-01
1.386396600474819607e-01
1.440826434244498466e-01
1.336763468095633067e-01
1.455883585739697339e-01
1.275818078481126827e-01
6.970849353285768490e-02
8.880355566416990587e-02
8.488244107699105534e-02
3.347043033569842285e-02
4.709522607915014175e-02
3.278765617228045215e-02
3.300199811133094907e-02
1.903445249594946931e-02
1.445944919537200946e-02
4.546871441709184058e-03
1.384777708239046112e-02
-1.852239668920927645e-02
-2.853803644783658305e-02
-4.816294326576701229e-02
-4.434212236286776132e-02
-4.100746067313115750e-02
-3.175536646133376995e-02
-4.989252964750266750e-02
-4.963714643862025128e-02
-1.557016036627724767e-02
3.195831448684663401e-02
3.014281805195097655e-02
-5.533760027199190364e-03
-4.818430772334862666e-02
-5.573639738061122312e-02
-9.712188362872811731e-03
-1.789471472567745816e-02
-1.250062582463241055e-02
3.293641560038603616e-02
-7.532643752791605418e-03
4.663614168894734263e-02
5.263648865663918264e-02
3.327722522265535998e-02
5.204040914146967900e-02
8.227309667631506340e-02
8.377200397279836730e-02
7.216929568273822149e-02
8.919727216779603507e-02
7.624682332079869840e-02
1.341965060241771257e-01
2.060808998315369900e-01
2.371685979855096271e-01
2.568407436840382529e-01
2.725588257819547278e-01
2.833258389722137505e-01
3.276965509315446501e-01
3.874794565973421201e-01
4.355889452511098603e-01
4.489155496866475414e-01
4.548028188793973303e-01
4.686371907650916935e-01
4.939770786899697619e-01
4.858436875393463139e-01
5.188096457615938295e-01
5.313270121173734317e-01
5.869354674909872394e-01
5.831078413068292443e-01
5.747673911030815042e-01
6.000905069661942592e-01
6.206758085445011064e-01
6.373443373606376694e-01
6.712263184978201069e-01
6.421568541446154299e-01
6.088177923289445070e-01
6.169151252175085753e-01
6.501809649716344675e-01
6.755119783468160888e-01
7.022781451834667621e-01
6.950970499731620178e-01
6.696478167452943886e-01
6.339327660036764289e-01
6.057731928815821565e-01
5.874131413105474486e-01
5.868514347005209242e-01
5.790780475769143898e-01
5.298377557257489823e-01
4.780998301763928482e-01
4.994465329614649063e-01
4.873889673582637028e-01
4.696966229554436767e-01
4.433918721692564624e-01
4.444201889927658633e-01
4.187662111390197950e-01
4.419013787344571731e-01
4.412325091254604148e-01
4.177914890809072412e-01
3.836597587814305488e-01
3.355862401133377082e-01
3.583646046862212775e-01
3.954854704828207335e-01
3.783599740943291434e-01
3.926109659311657341e-01
4.005341641003934972e-01
4.175297447165180476e-01
4.318103065395096918e-01
4.051716630715530565e-01
3.521858867555739403e-01
3.398493043936520186e-01
3.702360583626044255e-01
4.028880517999240962e-01
3.782509109020615878e-01
2.998158957003129732e-01
3.195570344074915026e-01
3.417993080042762144e-01
3.419898188885873713e-01
3.818751429532166175e-01
4.439271108169983715e-01
4.165539704698789647e-01
4.078823230283568080e-01
3.866795761285342081e-01
3.758439986367707042e-01
3.943491907714237743e-01
3.578485340702506345e-01
3.786900297639965718e-01
3.886293793033889221e-01
3.777680753322537610e-01
3.770823412538596986e-01
3.672081022966580122e-01
3.726966812625215342e-01
3.737089380729935462e-01
4.126091357911579882e-01
4.058259536701424031e-01
4.132889228796296499e-01
3.652583229735369974e-01
3.140610853519104628e-01
3.063753948246945025e-01
2.928131908123886573e-01
2.943931707396740260e-01
2.470661438041122093e-01
2.442502516654544986e-01
2.445881838665880936e-01
2.505446260084030485e-01
2.335891105023038539e-01
2.559306481207908046e-01
2.499330963811044470e-01
2.185805194796156814e-01
1.890932098549910900e-01
1.613886663619027995e-01
1.529383935082406221e-01
1.457346758655808927e-01
1.683242096030665436e-01
1.713858164387952465e-01
1.335296798577491340e-01
1.242431883081041855e-01
1.218125253505604327e-01
1.018513385802490984e-01
1.100655193232679269e-01
1.310310885293693994e-01
1.097449867414748703e-01
7.732432345564213549e-02
8.822764767533020080e-02
8.835045073351570355e-02
9.824202343100474355e-02
1.144630290237318437e-01
9.989363140552504072e-02
7.980541482703670808e-02
3.281314297708898264e-02
1.531032156569495789e-02
5.019706279378994412e-02
6.576920868306826429e-02
3.186141637199571552e-02
5.288222829240712269e-02
4.583718433910728696e-02
2.735443376426098527e-02
-3.157606277311420656e-03
2.602925805183253088e-02
4.785703773742373129e-02
5.699661223337254556e-02
8.129951829605792935e-02
7.127636506345579048e-02
1.113242391336061732e-01
9.432834542991427873e-02
7.614951798638248948e-02
2.458947169929194196e-02
5.605359596355628804e-02
6.835699545829390655e-02
1.030056992354469320e-01
9.259536034507254154e-02
8.295666167092716203e-02
1.094369057455014671e-01
1.004513190697055719e-01
9.213891069493469754e-02
1.184535530270404147e-01
1.245540952203331442e-01
1.711370524136560101e-01
2.562584364717673258e-01
2.703867398918604614e-01
3.345055901694239386e-01
3.153267356306035940e-01
3.424690209221127879e-01
3.509872775932251776e-01
3.734912045594238617e-01
4.287114437054666549e-01
4.119162406731590176e-01
4.214128036073248040e-01
4.648541883608930947e-01
4.887396731247299897e-01
5.385337393440087217e-01
5.621626297458091059e-01
5.974052335847858108e-01
6.389687139606903266e-01
6.445151199969869626e-01
6.302360312072510240e-01
6.347542159475885182e-01
6.443595859555056871e-01
6.785390351723176172e-01
6.850495976911388230e-01
6.500314613161365385e-01
6.687639288689946060e-01
7.150720168822148892e-01
7.188717931040607967e-01
7.218722309886071997e-01
6.970517903577186924e-01
6.789818534302803910e-01
6.227174721033389426e-01
5.785608671154651717e-01
6.089635358064049431e-01
6.096650353215347096e-01
6.021596605768586574e-01
5.906839984360451323e-01
5.824344837888014714e-01
5.452092789248986771e-01
5.602073980843311762e-01
5.422458810730249601e-01
5.052976089431656659e-01
4.944254606238298599e-01
4.670803360810800720e-01
4.069977020581423965e-01
3.805746052203792251e-01
3.772580582778848335e-01
3.759307392726959351e-01
3.328272963568156273e-01
3.306874361372674209e-01
3.207075209279948158e-01
3.263304667269391612e-01
3.416047673241000560e-01
3.206675869952850810e-01
3.229021679220887564e-01
2.930476518618948534e-01
3.051447442084787021e-01
2.909850122868785083e-01
3.010229190394285159e-01
3.182040207203837845e-01
3.131323526796320200e-01
2.901780003985880430e-01
2.845699958552989628e-01
2.915440600829039552e-01
2.962509752243145944e-01
3.283880702475899804e-01
3.233983122104571728e-01
3.024507795553217360e-01
2.936282350920565998e-01
3.128223519616832871e-01
3.220521489184512420e-01
3.205660719961336280e-01
3.489014968554068341e-01
3.595432453102369030e-01
3.736639427503000155e-01
3.497011317209192116e-01
3.125812534149654542e-01
3.489926365936187880e-01
3.399780490580280312e-01
2.666830615437764118e-01
2.715994526268871723e-01
2.976135018698580215e-01
2.946426143120665642e-01
3.153810297848625432e-01
3.226436219704482133e-01
3.095527090536751014e-01
3.220344600127795220e-01
3.247638710261809281e-01
3.017933338407137178e-01
3.086716026213451314e-01
2.871959317929744238e-01
2.669865342723993784e-01
2.413346067224984293e-01
2.518254861520148880e-01
2.562327268613508457e-01
2.513298229867503841e-01
2.277635368489755174e-01
1.982203918911869256e-01
1.816562348659101767e-01
1.811154441858024156e-01
2.162377054007749710e-01
2.354663661862901880e-01
2.161698398393423481e-01
1.699132992029684652e-01
1.458782951059697519e-01
1.879195087413346454e-01
1.343033431050207893e-01
1.312915373968195354e-01
1.543883568812084994e-01
1.626185528319052664e-01
1.466335336018056434e-01
1.442121794029632975e-01
1.428142976311628787e-01
1.124844962271821236e-01
7.789797662769731845e-02
7.409418564512408600e-02
6.085057427236472555e-02
7.405686453072027331e-02
7.040792862934910912e-02
7.885847522692210343e-02
6.400166369512566567e-02
4.105589319885855765e-02
4.294618291735603777e-02
7.188881655107653978e-02
4.133530055468027237e-02
7.461689467551419971e-03
1.671889052591189750e-02
-2.202328464479312922e-02
-4.353710241593113095e-02
1.083591839553250599e-02
-1.050752170469105087e-02
3.797902896042657656e-02
3.040728691430790928e-02
-1.017809338754656692e-02
-5.522738904407749339e-02
-3.823743700768672538e-02
-5.033939628818340228e-02
-1.446438392513743967e-02
-4.147288845303243043e-03
1.019032929631520645e-02
2.961717800231492698e-02
4.325817203131339383e-02
1.962948655645344043e-02
2.918062927007766122e-02
1.911192351885634966e-02
4.011174999410968556e-02
9.922493869807957889e-02
1.388694711935398174e-01
1.788406297699621783e-01
2.308122647658802651e-01
2.847120522669995824e-01
3.415035997903294041e-01
3.752871499968093993e-01
3.609940952412007409e-01
3.605269040980216833e-01
4.196767218037339431e-01
4.675733352763682960e-01
5.381200544228823546e-01
6.202444242305653610e-01
5.741751303529217809e-01
6.259241621038902359e-01
6.563514779360005713e-01
6.939474082926389009e-01
6.865942465191126054e-01
6.614278096293990661e-01
6.487428136156651037e-01
6.828360572211978896e-01
6.685487044833862136e-01
6.769076768833656166e-01
6.277749435072175199e-01
6.571352565773714849e-01
6.588010971260573889e-01
6.614615381766555391e-01
6.694098702006321400e-01
6.519874652359158862e-01
6.360923281014860819e-01
6.322789229498622099e-01
5.933118741234240101e-01
5.881236333513786274e-01
6.213446334409238325e-01
5.867236981455921097e-01
5.502907544709565446e-01
5.358533192188166261e-01
5.043421335851749898e-01
4.387621063148458567e-01
4.238690814223302628e-01
4.464255934606546905e-01
4.690771527028603782e-01
5.057154606361138338e-01
4.919466008097655996e-01
4.427811514605318188e-01
4.105044984022325760e-01
4.288050475695177055e-01
4.403136234624610013e-01
4.114923253371342016e-01
3.904255824928719587e-01
3.675746470460106718e-01
3.809332754848852032e-01
3.656141146647724494e-01
3.023107011482821793e-01
2.679325795996674864e-01
2.940699644567369986e-01
3.195434426545712414e-01
3.288876291219715031e-01
2.497803761498932351e-01
2.843630362341248441e-01
2.881405783609246596e-01
3.076762171923131950e-01
3.543409306796783120e-01
3.372762714644444437e-01
3.309771979529231856e-01
3.799237038187626148e-01
3.750204191625384209e-01
3.427125686484500666e-01
3.765257225316574474e-01
3.784088149420242742e-01
3.307535061678165134e-01
3.727522303697758943e-01
3.424246161208369665e-01
4.153176039126432739e-01
3.775560616478571552e-01
3.429632484052201891e-01
3.390064073310776194e-01
3.278312695676799948e-01
3.402858883912328603e-01
3.692524423066591566e-01
3.733819799404839435e-01
3.535612590875283900e-01
3.620413431138677085e-01
3.313248343583820033e-01
3.272110318232382964e-01
3.282853501188082723e-01
3.443203637156566077e-01
3.456573235439459602e-01
3.325545583036338959e-01
3.105776959489682243e-01
3.269463900950316804e-01
3.233547320686397941e-01
2.933078079637224667e-01
3.200733782439598163e-01
3.362438002666734982e-01
2.919342008856383175e-01
2.699468326622338488e-01
2.387515208091725294e-01
2.576875089237350980e-01
2.429437770654312989e-01
2.670055993145135087e-01
2.621793079121179093e-01
2.095299570867056316e-01
1.745841967746445955e-01
1.834621015781174314e-01
1.945628211982892986e-01
1.833754167530139978e-01
1.406658570484065340e-01
1.326795277010076601e-01
1.566856058979874677e-01
1.356152264688374742e-01
1.885850029666887306e-01
2.048099779346165827e-01
1.760933441759981732e-01
1.462135683599128377e-01
1.438337558787404769e-01
1.278431468373168178e-01
9.941770345531297792e-02
1.141565495165794142e-01
5.925187167636487146e-02
7.273644336855433767e-02
7.986841365121355452e-02
4.450820058980689553e-02
4.691732653638659711e-02
3.161028813165141227e-02
-2.885393006547718950e-02
-2.570598220638171949e-02
5.602554062606795657e-03
3.656355639637402094e-02
8.169883423800561664e-03
6.555318264336714058e-03
-5.163748738947353950e-03
2.792020273417911234e-03
7.619403212207328385e-03
3.691368355515945582e-02
6.269452284303544953e-02
5.089919281161740805e-02
9.210731054978429921e-02
1.385784635982835744e-01
1.195212769185706042e-01
1.260269454561793734e-01
1.335048710535568506e-01
1.069173028622338595e-01
1.152569197969629394e-01
1.787800400811025148e-01
1.774385611190558154e-01
2.341956375678518054e-01
2.493360415505461170e-01
2.657159347491313550e-01
2.507087882547698321e-01
2.583000126389783380e-01
2.877366927663467799e-01
3.564251031501909361e-01
4.238881960134394111e-01
4.121385764303330257e-01
4.301098112882050795e-01
4.847727069446463033e-01
5.601075601548736183e-01
5.328021947289541815e-01
5.760339261257348964e-01
6.239056907089606252e-01
6.234532260366029144e-01
6.508821374540129101e-01
6.555971345867035449e-01
6.642439367326710142e-01
6.794997198588685894e-01
6.814993430764055837e-01
6.575730674173503321e-01
6.976588868230068075e-01
7.005801591620582913e-01
6.648368336852256144e-01
6.558148455694039480e-01
6.921114906637937381e-01
6.984660559327070528e-01
6.928371557897845534e-01
7.053577791536835839e-01
6.495530452659517007e-01
6.296974034362303740e-01
6.304071418015811945e-01
6.027460095692611652e-01
5.707371047552030063e-01
5.632264427630071513e-01
5.514987120463631376e-01
5.184338424602492612e-01
5.216076083426981480e-01
5.566620712409959815e-01
5.403668965807381097e-01
5.605506372182746944e-01
5.049649564581212280e-01
4.768211958812992868e-01
4.631085744063029863e-01
4.903150846742981850e-01
4.525403868450191269e-01
4.238588903238296179e-01
4.274079519690082707e-01
4.249799652384806947e-01
4.180956306607517825e-01
4.055497784241062220e-01
3.865068682780014031e-01
3.548354822519418916e-01
3.171611543252339516e-01
3.773521492634480112e-01
3.729676277354663227e-01
3.667877111620798103e-01
3.580502884206307468e-01
3.756792000899098483e-01
3.693746259295128676e-01
3.703555072504410295e-01
3.431244217486161263e-01
3.358901749360488909e-01
3.642096950366326413e-01
3.761633723223676284e-01
4.161025159123274975e-01
4.351048002607412757e-01
4.273324263026013203e-01
3.680047696213391006e-01
3.406317033217376999e-01
3.458010864714967103e-01
3.616431376399851794e-01
3.475776365352253316e-01
3.367573619275148200e-01
3.320074068022671465e-01
3.691130529753136047e-01
3.703233925924647174e-01
3.715084950983137402e-01
3.841118343881418928e-01
3.942513306897473813e-01
3.786372316197292864e-01
3.286825565658323955e-01
3.628832008767233774e-01
3.577204141253518266e-01
3.501748824336162191e-01
3.686580067130252325e-01
3.485009619550486493e-01
3.163578679702697682e-01
2.991411466001907549e-01
3.127732994620138207e-01
2.809292163768768447e-01
2.638013973426894809e-01
2.605971562487218174e-01
2.506317663712339661e-01
2.734497950042943937e-01
3.118142715613755889e-01
3.055970707265207031e-01
2.936291298054665710e-01
2.598080331088602479e-01
2.754706821907397796e-01
2.686060697354943350e-01
2.665074692680555191e-01
2.342025334033484285e-01
2.120006421438185851e-01
2.273159529399945700e-01
2.074280415231547214e-01
2.093432964593981427e-01
2.164314951959216415e-01
2.095327713327502228e-01
1.533706527954686039e-01
1.130552350040410353e-01
1.426157057514437221e-01
1.395095063050649509e-01
1.101327678943950505e-01
5.924864531203392209e-02
8.521253558150575225e-02
4.975463769376162887e-02
9.582494033485842999e-03
3.004556544456263301e-02
7.000790552961731750e-03
4.591900708011589782e-03
2.731063983561874547e-02
4.103361504073135824e-02
3.624578022960213419e-02
2.906926835682938429e-02
1.603507227977626903e-03
2.455198124608687360e-02
-1.176083995658128850e-02
-4.296120241106889115e-02
-3.444393632582408438e-02
-4.673463098969003054e-02
-2.716516827811838938e-02
-1.727030663685246922e-02
8.958304067353343655e-03
9.808953869439520842e-03
-3.156651066377788584e-03
1.762899293542028942e-02
4.200857907539314040e-02
5.494385107047819461e-02
7.279669155791074209e-02
1.355591236441561764e-01
1.790487353819821548e-01
2.180482618331865963e-01
2.552051240897547091e-01
2.762850998964248017e-01
2.863264496386204172e-01
2.551042099441588329e-01
2.558777118290881947e-01
2.799702284403596253e-01
2.746349686587618577e-01
2.698092545843215340e-01
2.835862961081223599e-01
2.403652418122803891e-01
2.287205822995621585e-01
2.064089498259180921e-01
1.491977974642521021e-01
1.719505825044945202e-01
1.972777941009180025e-01
2.088914693026042713e-01
2.340338366545470783e-01
1.997460976539337518e-01
1.589312437271774292e-01
1.699511238238852473e-01
1.597919766758684468e-01
1.370624667193474644e-01
1.387517467951911165e-01
8.735058281750553155e-02
7.166451278548506554e-02
1.149274929495894410e-01
1.158434799022537431e-01
8.128503766831403354e-02
6.088528136921204925e-02
8.342059728922743278e-02
8.452884865426930905e-02
7.807507140511435462e-02
5.898531753806388056e-02
2.879212275849450664e-02
4.822554161145066465e-02
4.045708955227515780e-02
-1.152466701682816619e-02
2.750155801414913559e-02
4.264468947158041312e-02
5.959135488815469478e-02
4.377870224542022154e-02
-9.119481071375251657e-03
2.408775092532046413e-02
3.825033688094750528e-02
4.931362053111109506e-02
6.365759376609793352e-02
7.228040955817729984e-02
3.172898544007200089e-02
-1.117297182130493061e-02
-2.600652541213748295e-02
-2.887788818122757548e-02
-5.981372121324021046e-02
-5.848764567360474620e-02
-5.567324926691036985e-02
-5.133851790821224864e-02
-4.993729242106399041e-02
-5.610486030654852907e-02
-3.202948431272393398e-02
-8.186050604459302327e-03
-2.585337321068100977e-02
-8.569647974400532164e-04
-3.368228807407894904e-02
-5.186189574132143293e-02
-2.990766812291438537e-02
3.452118011356826444e-02
3.529368626134466586e-02
7.792035198793434425e-02
9.600968523580585834e-02
6.907384886328436779e-02
8.085427724520126425e-02
1.000618157033742739e-01
1.696858627013127507e-01
2.369277075264217547e-01
2.369597416575123794e-01
2.543218231649217453e-01
3.115806766706786801e-01
3.086146231743496782e-01
3.308969783217000638e-01
4.229776764859776161e-01
4.247847883494527688e-01
4.563411786597678099e-01
4.761347302024107053e-01
5.416364007954488358e-01
5.568520199046413932e-01
5.850658024892292364e-01
6.668111391184954329e-01
6.494665832705568409e-01
6.283064360803870541e-01
6.474677451512571569e-01
6.624662284181547234e-01
7.370304465838499741e-01
8.050397767636329194e-01
7.906500973320881309e-01
7.475191161594596512e-01
7.343710417229288856e-01
7.483620222718952997e-01
7.216113392559853068e-01
7.037591750343943353e-01
7.178524379032904523e-01
7.090197562447707602e-01
7.014534532492719965e-01
7.016881109238897185e-01
6.978212633035157930e-01
6.475627516329124367e-01
6.290024476035809275e-01
6.194146624338342511e-01
6.268170595243920395e-01
6.475739309624065632e-01
5.949887226387127193e-01
5.759261646448146088e-01
5.414805174887997730e-01
4.967012463033504410e-01
5.117612054258290355e-01
5.055399335200011501e-01
5.111349397990677668e-01
4.767502491310407486e-01
4.672965234335323959e-01
4.373216498092872273e-01
4.365056372307695720e-01
4.187838715730878847e-01
4.122280042597827876e-01
3.854706484583652060e-01
3.396715063353367148e-01
3.824847594711803245e-01
4.042060282072195143e-01
4.041886569469950174e-01
3.915995362947726210e-01
3.601826670660747687e-01
3.545990648874025042e-01
3.494193735368587572e-01
3.425478094947270735e-01
3.793698318757515731e-01
3.689600846767380204e-01
3.327547748482991286e-01
3.339476852033146925e-01
3.328784058701761417e-01
3.398088109912412724e-01
3.075686162985930561e-01
3.352812213174111711e-01
3.294538475319097048e-01
3.363277510218020683e-01
3.655496479088841122e-01
3.856422374882640947e-01
3.896673851868011074e-01
3.502681062249557442e-01
3.122061285679444964e-01
2.797576091943130283e-01
3.061617046744830595e-01
3.627368445386860984e-01
3.345058130652996953e-01
3.271980915026974635e-01
3.275845028122211788e-01
3.137298192557199661e-01
3.407884344204337168e-01
3.511162615761463379e-01
3.462458592970999449e-01
3.384709712407527604e-01
3.296469551790948693e-01
3.133761547022193561e-01
3.234568717010771755e-01
2.987741173483207113e-01
2.468577213887067912e-01
2.747495104758121420e-01
3.216627130578766369e-01
3.058797373412122100e-01
2.577559884229878584e-01
2.509328655541390729e-01
2.854618821440718657e-01
3.287389904802888174e-01
3.618100029792958860e-01
3.720812554691294016e-01
3.273370226424651142e-01
2.961368278535088105e-01
3.405620703250725745e-01
3.600517083946360719e-01
3.548038341109496230e-01
3.505708849988247167e-01
3.125275525739754090e-01
3.291669602562894426e-01
2.935026006368118834e-01
2.281908284277927024e-01
2.092437365642930980e-01
1.950373542640925495e-01
2.020679388126150333e-01
1.671074134014884360e-01
1.517756217546382125e-01
1.397028726266010823e-01
1.634669754230831662e-01
1.869669774808781215e-01
1.641483661498857050e-01
1.426195252650774847e-01
1.242928396808613556e-01
1.103142456654277737e-01
1.255703368077396298e-01
1.118661862092298620e-01
8.715177952028060893e-02
4.720306103226051819e-02
8.489292026689118642e-02
9.917134211965884794e-02
1.016719079878288384e-01
1.198122988307726428e-01
6.552009272297172615e-02
6.486711106488510237e-02
6.429792503562621608e-02
2.461991883116192159e-02
-1.955312145475410213e-02
-1.990892712232423395e-02
-3.132533512140121823e-03
4.503715911411314277e-02
7.016246225106043122e-02
5.703288654245332323e-02
4.675432550841782109e-02
6.107618692995640808e-02
7.904923481430169152e-02
9.187247291553765627e-02
6.034123868161538756e-02
2.767594393803428365e-02
7.650982595854472282e-03
1.024805803065820427e-02
2.199215183735532542e-02
3.505739803758632644e-02
2.976236796338824903e-02
1.976496653515564389e-02
2.575086238197681066e-02
3.565104819736628766e-02
3.236436087675290812e-02
6.301771548488344088e-02
5.056385262782320950e-02
9.547310401430778026e-02
9.261669837612582223e-02
9.464923709999070733e-02
5.951017469170540031e-02
8.838286780144402610e-02
9.028832347013956983e-02
1.577966525430371802e-01
1.790806556809820260e-01
1.665522692841825414e-01
2.481658661600341098e-01
3.086791648389354825e-01
3.698854779054934760e-01
4.060453575887845723e-01
4.555025643042126537e-01
4.435197795436458534e-01
4.677351712170672582e-01
5.058251716631018136e-01
4.943444996313044459e-01
4.418222327309007103e-01
4.366489049030274905e-01
4.935946446608984184e-01
5.119726562837321193e-01
5.624826047611108937e-01
6.138213077296623688e-01
6.630616888162972344e-01
6.500717461273635145e-01
6.692166708211600978e-01
6.852834008314918623e-01
7.090426255607207295e-01
7.003318519331147574e-01
6.828930842491246489e-01
6.816693464965309923e-01
6.610180886434234848e-01
6.502485559260049452e-01
6.813768178403295517e-01
6.126136077884485331e-01
5.709853767724856199e-01
5.647553973863758126e-01
5.561598541059610268e-01
5.647771103043409680e-01
4.933832103432921889e-01
4.783564725766433212e-01
4.901931716819212803e-01
4.493398433866808150e-01
4.239311290949485667e-01
4.121164912831402072e-01
3.720641413470568981e-01
3.425046159242663424e-01
3.644516683321483708e-01
3.503729397804226098e-01
3.361746367770864774e-01
3.291683658336371221e-01
3.085430161338619248e-01
3.148205927584035724e-01
3.236020560682347225e-01
3.442766034238377570e-01
3.240875547607878771e-01
3.230034236529940039e-01
3.178865019669994685e-01
3.370672040126145297e-01
3.844441545209095756e-01
4.169682102430061765e-01
3.816881764092420193e-01
3.625956168087968168e-01
3.790793311792985953e-01
3.673110076055681184e-01
3.534276236943820204e-01
3.467307141166637852e-01
3.448379027890076665e-01
3.674029067652038183e-01
4.181064123826331858e-01
4.486617274928945687e-01
3.688402342390501021e-01
3.574698125647534086e-01
3.544363489136949652e-01
3.544352270538507210e-01
3.724039139019381106e-01
4.008547448279214387e-01
3.597539513391196930e-01
3.513791461574972130e-01
3.377484157322478420e-01
3.280089705475865980e-01
3.432384345741780196e-01
3.501057300048950882e-01
3.408875321543471393e-01
3.321452623880809529e-01
3.154919607540900284e-01
3.264266892068259374e-01
3.213709308201648795e-01
3.168291417969159030e-01
3.352055045845605541e-01
3.567163579092174075e-01
3.172747738882376600e-01
2.795602934574998311e-01
3.170107382506043847e-01
3.163231722216677810e-01
3.090114957967347031e-01
2.690377545604132337e-01
2.886604341703230547e-01
2.907700261036265665e-01
2.734912959511460739e-01
2.428630607365781235e-01
2.419317107772247233e-01
2.261799973632208083e-01
2.321199104667293067e-01
2.361611567982533078e-01
1.904802584747244953e-01
1.817501242973414144e-01
2.102934340460436424e-01
1.471140786184017279e-01
1.444487059437806753e-01
1.663892553371330851e-01
1.687436147041064260e-01
1.347175902069590314e-01
1.185605404696188220e-01
1.081389192944142846e-01
1.227487703140396069e-01
9.126478515352584586e-02
1.275030351036066101e-01
1.227875951104168972e-01
8.730374879615727945e-02
9.360998394545184953e-02
9.519640272721235918e-02
9.951913096094555655e-02
6.343678885067552398e-02
4.097970342909607044e-02
5.646355134832128919e-02
4.752553246731161529e-02
4.194121048396064200e-02
7.278816649208319500e-02
6.804246969232027875e-02
5.148097117374546283e-02
4.342329843855109034e-02
4.104556108244171442e-02
6.629061510963611681e-02
1.130299561133806530e-01
9.941290569141709998e-02
7.860522570932843012e-02
1.210176175123274939e-01
1.546709511186193098e-01
1.127111692760834616e-01
1.504909298590976774e-01
1.723565361146129349e-01
1.744104335060437660e-01
2.097038823311229427e-01
2.503888115481563426e-01
2.873680484703609039e-01
3.134591221980198572e-01
3.358607326209898103e-01
3.834711677242168548e-01
3.937884105219818243e-01
4.058307154602291966e-01
4.262171056267972657e-01
4.137870808987093030e-01
3.702812949500646766e-01
3.483789932570671710e-01
3.597250708238066697e-01
3.194652142824228602e-01
3.369107334104185503e-01
3.237221603886613064e-01
3.289566604843837117e-01
3.259313355022170899e-01
3.202319876266756515e-01
3.162044572250397589e-01
3.345153255667214220e-01
2.978529965201311969e-01
2.496811317344724279e-01
2.455920179160506756e-01
2.612351415627361950e-01
2.622776058145082079e-01
2.590771745745003019e-01
2.404979306093505964e-01
2.345263593938659019e-01
2.080946818775190055e-01
1.860052801832591529e-01
2.626152047456178917e-01
3.143187002397777596e-01
2.722853879101461705e-01
2.887002141007576905e-01
2.582952376022846774e-01
2.247303446821493633e-01
2.212725658169795717e-01
2.461403533167548785e-01
2.323613013626178447e-01
2.062003550183254263e-01
2.283204254269976530e-01
1.805068375810932602e-01
1.691445309821950072e-01
1.627751320173163041e-01
1.645733862328413455e-01
1.766531888302186604e-01
1.634652518974744617e-01
1.619640669566200786e-01
1.634839640902347180e-01
1.543791712770132829e-01
1.378234252112925107e-01
1.385264718377156312e-01
1.128506343812920726e-01
8.922182513487274258e-02
9.227430438249470401e-02
9.453735194284437759e-02
9.727988654681718472e-02
1.000620189076812799e-01
1.241668810801909856e-01
1.413330221933879471e-01
1.432619150355993742e-01
1.192964598560095901e-01
1.316622181281121573e-01
1.510868783929291137e-01
1.530680107736174800e-01
1.518197181957958442e-01
1.432191120548038654e-01
1.944344771395233318e-01
2.208935940295626010e-01
2.486613771743585444e-01
2.358383163767320545e-01
2.271661188602570880e-01
2.442722058344727887e-01
2.175939627899058926e-01
2.022619839610561576e-01
2.660184390819957390e-01
3.082154285335997335e-01
3.016512685011983885e-01
3.148326219062790310e-01
3.535875649822484701e-01
4.008587897753155271e-01
4.001107529238687732e-01
4.109942871590709923e-01
4.434247551079130711e-01
4.546637307839112019e-01
4.733179098614154756e-01
5.574931193212003810e-01
5.643721519671969222e-01
5.643460032687094285e-01
6.030864078882767210e-01
6.223149745715210734e-01
6.626245156274482850e-01
6.948022721213711339e-01
7.408379938401149500e-01
7.515185405206974423e-01
7.650364159072067238e-01
7.567656882020813436e-01
7.799125173268162126e-01
7.803192072637062937e-01
8.198821354337865186e-01
8.059632248033403723e-01
8.316035462769433284e-01
8.953911720437562893e-01
9.083020328103234009e-01
8.902554432508850146e-01
8.462230008206541587e-01
8.485325846502813629e-01
8.467137622397148400e-01
8.731135720902816200e-01
8.544352253627198746e-01
8.340095585174137627e-01
8.024690423148964635e-01
7.963018769366889682e-01
8.262741567588518521e-01
8.362947174571093711e-01
8.487487149626780081e-01
8.181524748271500336e-01
7.414882034400234190e-01
7.488371377633299408e-01
7.010315021932589374e-01
6.379508629688809274e-01
6.651516966440386147e-01
7.194066481516930844e-01
6.620073512527544501e-01
6.181477764279763587e-01
6.372264889272549748e-01
6.479644884121708026e-01
6.170505871581957180e-01
5.815594829549657341e-01
5.761869302854558672e-01
5.870611809184816954e-01
5.664344192280464929e-01
5.595945646541822249e-01
5.334887102324760155e-01
5.067640525088776826e-01
5.071427408802833270e-01
4.752584263106746643e-01
4.404770068980421449e-01
4.378257925707982334e-01
4.491804135461827108e-01
4.521754467182896309e-01
4.315777539040118738e-01
4.106161578379498023e-01
4.219406935172004824e-01
4.512045958953057045e-01
4.469547917789861158e-01
4.275614263438697882e-01
4.186187380245207645e-01
3.980039029735963352e-01
4.257834371675378038e-01
4.521735659872127000e-01
4.522466969882769083e-01
4.321697068190207269e-01
4.455138144219099594e-01
3.781983653653587241e-01
3.714254629073437397e-01
4.134289556054807635e-01
4.489136105133240684e-01
4.640842842219843889e-01
4.648815179966998001e-01
4.878436123902203381e-01
4.822272088228035658e-01
5.055325959825672788e-01
5.111670740678223579e-01
4.650754694454913296e-01
4.609730160999310211e-01
4.966171812304578381e-01
4.979060265751541481e-01
4.815259038246939571e-01
4.957655475921364796e-01
5.061698251520398983e-01
4.694594457602028204e-01
4.735340922653907270e-01
5.150466052505118242e-01
5.208031475786160103e-01
4.958894715551180332e-01
4.608542574224795962e-01
4.700626408188204319e-01
4.750115533896671627e-01
4.655416390677097338e-01
4.550080627000993583e-01
4.828331378679617814e-01
5.066204866980654753e-01
4.683386084996026821e-01
4.825706850838948903e-01
4.559663660600173918e-01
4.380294716040418757e-01
4.247360746566907763e-01
4.156351794166185942e-01
4.155982047742201591e-01
4.252274293529634264e-01
3.482845730155010311e-01
3.529286137880721652e-01
3.734394113370875234e-01
3.371878436413219826e-01
3.190404974256283999e-01
2.826701812598948482e-01
2.529633768112921621e-01
2.563712767481200472e-01
2.339587178821016800e-01
2.641826775125618032e-01
2.781898647471219288e-01
2.872297804366423235e-01
3.058030233861230851e-01
3.161973024334814864e-01
3.185381260223952848e-01
3.098129477981484414e-01
2.688982258880378007e-01
2.330581593538252339e-01
2.541770305305555699e-01
2.298230794892555939e-01
2.669085516914527778e-01
2.513036403623575832e-01
2.228253773357028178e-01
2.146925900178893176e-01
2.066872232247000951e-01
2.190547419165398968e-01
2.310919157906412558e-01
2.047891558122026390e-01
1.946033341522136473e-01
1.743192612556948018e-01
1.571316329172044446e-01
1.577353050026926162e-01
1.689912192269176772e-01
1.932713070810529177e-01
1.538970845852579150e-01
1.517162746750028435e-01
1.421748845715337661e-01
1.466766773258607326e-01
1.259800691240257342e-01
1.053780474812484602e-01
7.876765175122669993e-02
1.288882023387925013e-01
1.445874994370256461e-01
1.083750349071094798e-01
9.057742238154557757e-02
7.540694809196145376e-02
8.487130028595921138e-02
1.049826775026656139e-01
1.028701314986562032e-01
9.926219636680484737e-02
1.329649524533532690e-01
1.400598887414829796e-01
1.433930403069532955e-01
1.785498111890065076e-01
1.304703299940480066e-01
1.464295569180522061e-01
1.899517876250528259e-01
1.998611315555137991e-01
1.971234492327085808e-01
1.906725040622025413e-01
1.947588882086389028e-01
2.271673422068765102e-01
2.651121114507715149e-01
3.185158867564393814e-01
3.844294415846221113e-01
4.197990275189760756e-01
4.558140119738938734e-01
4.501241885131309628e-01
4.637184564548965660e-01
4.799987046757027143e-01
5.258434143000778604e-01
5.645301563528019040e-01
5.614655525806704350e-01
6.035808704056780938e-01
6.146082322821312394e-01
6.117250413399467623e-01
6.309463313427035036e-01
6.149858303703501505e-01
6.216918595871894215e-01
6.228735499633007988e-01
6.154415334528170467e-01
6.388909712006100028e-01
6.362844325549551483e-01
6.520257047795102734e-01
6.851094174043561580e-01
6.972253222458048016e-01
6.654568206405456765e-01
7.187325174299944441e-01
7.244762080302441509e-01
6.551588733393908237e-01
6.214791551300279382e-01
6.403275635445839775e-01
5.916771174254727983e-01
5.739290644292942556e-01
6.254230565737513015e-01
6.244344168334668987e-01
5.792436573804312649e-01
5.737603864541713783e-01
5.786001900150812283e-01
5.494224049427148815e-01
5.119464324556550761e-01
5.454693532104971654e-01
5.507780647135336327e-01
5.125705767150063874e-01
4.428016796553840839e-01
3.939158150576950179e-01
4.063018474316920092e-01
4.200937161361870675e-01
4.082013895612798815e-01
3.558249683894911253e-01
3.442833978061585198e-01
3.321484154832787805e-01
3.393550038750278719e-01
3.371305382550328633e-01
3.619789310067325072e-01
3.719088849920954565e-01
3.621013971554920552e-01
4.298180661117969592e-01
4.168738781790498060e-01
3.883908052821934964e-01
3.690203542828674466e-01
3.478413604753405330e-01
3.096801347443033370e-01
3.162200034157348627e-01
3.369625175084446367e-01
3.050370604499754723e-01
3.098449303581898850e-01
3.032326793814089094e-01
2.613208907533934866e-01
2.238198028662319872e-01
2.472944505293692696e-01
3.119903395928934065e-01
3.337857664833424054e-01
3.006051738641968285e-01
2.797690122227812770e-01
2.886096967358561804e-01
2.933150232875759156e-01
2.675920121864872603e-01
2.906967049646323464e-01
2.858640722533652978e-01
2.787842354693902958e-01
2.851041155003029015e-01
2.745086709952169191e-01
2.663239270740826448e-01
2.421460980065293089e-01
2.240616995316871696e-01
2.375483264620200374e-01
2.129416928449473501e-01
2.346451836847029959e-01
2.344171072081052132e-01
2.514203577978466608e-01
2.541131629664099001e-01
2.763982666719559944e-01
2.797300434096358090e-01
2.501354283968926784e-01
2.140950118221437160e-01
2.197300472202853849e-01
2.254251941438399631e-01
2.067412882170348853e-01
2.216897277039422687e-01
2.129298543061604876e-01
2.378865083765154820e-01
2.160278450854814514e-01
2.188586285158413691e-01
1.967095909234590767e-01
1.780501422370829034e-01
1.654398306539096308e-01
1.896987882356945820e-01
1.920885720617640513e-01
1.380064386294309609e-01
1.344030238950074951e-01
1.242385483592267220e-01
1.182742134833682512e-01
1.434777138712787781e-01
1.113567780323995032e-01
1.003257186450499105e-01
9.150746447158038255e-02
1.001540691774082947e-01
8.703463663353597224e-02
7.709088194509561287e-02
4.744496971809731428e-02
2.596989179125799505e-02
2.432053550336438219e-02
5.409669134837080673e-02
4.123009039543093501e-02
1.985542251954646592e-02
2.817039332148611394e-02
4.641057169329431548e-02
5.304706240696548114e-02
2.646723268358391890e-02
3.765158201033675604e-03
1.193636813476509420e-02
2.128607804588236382e-02
-7.371462849691857305e-03
-1.052264157239100884e-03
5.559363703826243619e-02
7.750452612359894078e-02
8.579664431106379108e-02
1.050552253421733195e-01
9.489122064670563184e-02
1.400615294525627552e-01
1.751141983330753715e-01
1.990280643142637584e-01
2.532760375388934948e-01
2.663836353434126392e-01
3.256629521464017296e-01
3.161359288900066344e-01
3.669501682914446672e-01
4.318472310673423520e-01
4.104086665534332212e-01
3.372693740799235229e-01
3.085682080886105183e-01
3.183359542672332121e-01
2.684547326041060722e-01
2.084128234765666998e-01
2.153382946868416525e-01
1.973385082646566813e-01
1.661242843420730753e-01
1.826445832960865434e-01
1.859604688656862903e-01
1.835089373250432532e-01
1.809557119127560842e-01
1.400587946865682609e-01
1.571548471606962205e-01
1.891591472321006995e-01
2.179668082278740648e-01
2.426556884419029669e-01
2.288581945659370065e-01
2.616730715466832891e-01
2.337177235001263731e-01
2.343433446994493685e-01
2.460153872228456051e-01
2.576684665759068071e-01
2.456306201472545081e-01
1.721067795010322588e-01
1.420250599738361874e-01
1.054700028446424603e-01
1.082122537672306900e-01
1.285081286428452763e-01
1.301390271892119976e-01
1.053765175654108877e-01
7.680658805442430737e-02
9.736508874819353732e-02
1.188066213996517295e-01
1.251033680489376521e-01
8.433176855170429476e-02
6.646962426396960111e-02
5.753303442508476279e-02
7.092866487928092822e-02
5.245693437393977865e-02
5.998783825745103437e-02
4.933053993231969331e-02
1.252738378947909972e-02
1.320593964195487455e-02
2.388241534338488015e-02
4.847148082393650664e-02
6.764914217058154433e-02
4.546141881768339665e-02
3.068436265412651659e-02
9.561860267732390228e-03
-3.798176540240089105e-02
-1.873094486822809296e-02
-5.114920740296742541e-03
1.111963087676500275e-02
3.770428242482078141e-02
2.369399121194190605e-02
7.173807709547533329e-02
6.414624466768992228e-02
3.812319113107730251e-02
7.095216559086513219e-02
8.002898477208578165e-02
1.543261050584612826e-01
1.517089609718069998e-01
2.035400844389686492e-01
1.949945586922981755e-01
2.127999516727632490e-01
2.162804412364547624e-01
2.467665112988924603e-01
2.765757241654612786e-01
3.212472354259108820e-01
3.936717861808257668e-01
4.773172772520850593e-01
4.982368531111280863e-01
4.933074812881895754e-01
5.104433364176017562e-01
5.666161657224766390e-01
6.157853316747885497e-01
5.922270520888344159e-01
6.070382350601318810e-01
6.354429310884648352e-01
6.602238143880433396e-01
6.946846510808807329e-01
7.188007329452551497e-01
7.342086311698042822e-01
7.711972269928967227e-01
8.041010692991990005e-01
7.723185891693395977e-01
8.286021304029527190e-01
8.247785637105939927e-01
8.011331970094793808e-01
7.686970999990614395e-01
7.954405620099354035e-01
8.341384543548484576e-01
8.680534824767842661e-01
8.288201875998107981e-01
7.944056184403420762e-01
7.997324504044415194e-01
7.555583153515755823e-01
7.463748266774596907e-01
7.391912784249179413e-01
7.069185245862915634e-01
6.838353637301742838e-01
6.679333934797879735e-01
6.732218114150164689e-01
6.391354908448109162e-01
6.659081766228209798e-01
6.156063862178454693e-01
5.850512855441919458e-01
5.587169423273801172e-01
5.870330030942692012e-01
5.632010483014204816e-01
5.351087032447988667e-01
4.674707866935284284e-01
4.739649082182144646e-01
4.568157236483452732e-01
5.017373537373202019e-01
5.500483979331662887e-01
5.848041336595457551e-01
5.804645470356291082e-01
5.090979609959036534e-01
5.390128536429552586e-01
5.516052511674647274e-01
5.200164958324370312e-01
5.140086634477283312e-01
4.776981201577151781e-01
4.758202228850434423e-01
5.052363665549024496e-01
5.190965158783966693e-01
4.706901232499533516e-01
4.494837274857170772e-01
4.211486458075798800e-01
4.395575989979038090e-01
4.060098614512502313e-01
4.072382882202256194e-01
3.968710745371065718e-01
3.967550820728579786e-01
4.193008553716806031e-01
4.635812751783615071e-01
4.257266889300715951e-01
3.930533529173556029e-01
4.397303206492293448e-01
4.600538748167536385e-01
4.904202663335698320e-01
4.538833739943429757e-01
4.516911900948503145e-01
5.047489775118111366e-01
4.792215369893738641e-01
4.729212903863203588e-01
4.773276341790485544e-01
4.579104978746683097e-01
4.479958708161125847e-01
4.582884428219034523e-01
4.458785633100005308e-01
4.482291544987594967e-01
4.679372112532335093e-01
4.632869471710069353e-01
4.052728443713103923e-01
4.122073764881712399e-01
4.007279569329285085e-01
4.323417247818105436e-01
4.537466669684546705e-01
4.520943749479588436e-01
4.284657854832421564e-01
4.450694163422709293e-01
4.232253498224898269e-01
3.656537147882479299e-01
3.466245397306172427e-01
3.616443847408445378e-01
3.574106821484633878e-01
3.399826688687982990e-01
3.583428373702458591e-01
3.505296561285420331e-01
3.029137806923932752e-01
2.997699551807410656e-01
3.248554275776971423e-01
2.928264587975154543e-01
2.415283985172842207e-01
2.693969957015457384e-01
2.668296502616872568e-01
2.159985023701676832e-01
2.391994961106798101e-01
2.610919467945832517e-01
2.146808880396833541e-01
1.904758204275487088e-01
1.804141086958672147e-01
2.135548741234460368e-01
1.991425201005277978e-01
1.903209326508876753e-01
1.951532262969555287e-01
1.876059095708629831e-01
1.598490197652407407e-01
1.704937776421687479e-01
1.451454250253595979e-01
1.287362966852679536e-01
9.745009059741292778e-02
8.542904838036906312e-02
8.386683108325712621e-02
5.288221222489711271e-02
6.695723236065956319e-02
8.899413155451188495e-02
1.094860579103625886e-01
9.814858748646151931e-02
5.501067006768582679e-02
3.745096805721577493e-02
5.477193723854377472e-02
4.843738488394550706e-02
2.712191864945683040e-02
2.669860569092957076e-02
3.216466084231017764e-02
-7.160740806158626473e-03
-1.385244608136185218e-02
-3.539282467814203192e-02
-3.447805573384479794e-02
-1.621223515891786690e-02
1.115123100863260434e-03
4.980624621890160364e-03
1.323683248559958184e-02
5.138547335690622775e-02
2.620308176143378021e-02
3.628090668263197344e-02
7.455439108128014691e-02
5.390568570195362896e-02
8.543934088836332985e-02
1.203536469847057422e-01
1.423369917603944934e-01
2.048762548038178810e-01
2.368818437348581274e-01
2.316083369212858789e-01
2.529828017250693173e-01
2.624667790381738364e-01
3.077195540327278267e-01
2.965769373627734073e-01
3.757515351238766010e-01
4.519364852656460041e-01
4.480016869837723514e-01
5.024938498787722141e-01
5.172250329100753774e-01
5.097743855750089814e-01
4.912809199039400165e-01
5.052096497687684762e-01
5.530690708290197932e-01
5.747050032844703837e-01
5.451882116326264294e-01
5.892364492511089624e-01
6.501185083357515770e-01
6.870266832519955624e-01
6.629930241726892381e-01
6.590131670922352303e-01
6.586635631018300518e-01
6.783592323389890932e-01
6.586670017705253954e-01
6.894103429576495801e-01
6.862743897087139056e-01
6.690127180698836051e-01
6.299102465148158636e-01
5.582771604851682890e-01
5.511760065555540988e-01
5.754805655673951303e-01
5.437320955899782593e-01
5.258355517927867373e-01
5.202964746362062076e-01
4.584063115057295801e-01
4.623464550137897366e-01
4.312286304193966302e-01
4.040997202231881857e-01
3.880061056338700576e-01
3.886337335363592715e-01
3.576560915011436359e-01
3.533708469387409901e-01
3.509941723604000918e-01
3.338274244655707323e-01
3.457691938586871516e-01
3.244282769753173423e-01
3.032713362146581826e-01
3.347127405843342562e-01
3.120501780359853927e-01
2.874893215694608872e-01
2.783222884992282986e-01
2.873178043690863825e-01
3.108926669984590774e-01
3.015822311661713329e-01
2.972494987966003976e-01
2.947673846997176383e-01
3.002892664180252802e-01
3.539209077425799488e-01
3.379877215681277303e-01
3.629139439936968636e-01
3.783882706309742994e-01
3.460859315229358746e-01
3.634095229081822920e-01
3.466289914785714021e-01
3.546939938545223270e-01
3.083529833870922165e-01
3.088946106743857278e-01
2.883025535816190477e-01
3.079772879815260711e-01
3.214815545209506742e-01
3.111199006440557580e-01
3.063124664635540340e-01
3.098229531079658705e-01
3.346324833967407875e-01
3.285634107184914332e-01
3.238611230410124997e-01
3.336239670346929920e-01
3.291104759513504563e-01
3.358228657787151739e-01
3.485512867554612648e-01
2.779639209858434379e-01
3.071828440683282424e-01
3.289378415799171229e-01
2.977168375063105610e-01
2.953236259668452490e-01
2.566579372279940707e-01
2.346487512397823216e-01
2.286256086064454296e-01
3.067947424569638093e-01
3.251550516012934322e-01
3.115885172318708651e-01
2.377686431994723848e-01
2.754454872088874517e-01
2.620397097539077791e-01
2.063638149946840639e-01
2.430552077056318538e-01
2.289570669231469346e-01
2.474177768820176315e-01
2.288161680116369556e-01
2.651093302288441977e-01
2.997383133227615737e-01
2.344326894084455826e-01
1.976548932220161814e-01
1.818137604151078279e-01
1.831757586028280038e-01
1.539014150565041761e-01
1.423823232023156138e-01
1.062182899224762139e-01
1.131370883220013807e-01
1.269532804956368666e-01
1.036531675401827779e-01
9.396200593100559328e-02
5.260578230707896319e-02
3.640241442570694985e-02
4.387504906748675160e-02
4.317542906430093391e-02
4.483072658121489001e-02
5.025976287307129531e-02
3.859406993435526151e-02
2.235839442013861852e-02
3.317699288099815874e-02
4.247517593635636440e-02
5.123277179581623569e-02
4.857818868396450440e-02
1.464012521469011500e-02
4.283421857602663640e-02
6.951887418343818958e-02
3.880185271083513854e-02
4.062314976139523581e-02
5.531844961419397910e-02
4.302443424225591007e-02
6.288407370083565207e-02
1.089921861710993201e-01
1.332370257513654233e-01
1.420203736998355004e-01
1.571825470258935153e-01
1.533160449315393026e-01
1.458973651508327640e-01
1.874957825865192218e-01
2.323629851477231612e-01
2.587719771439902505e-01
3.190295053105376422e-01
3.568984135025349835e-01
4.263869854824998695e-01
4.426506324443204576e-01
4.721989342562293301e-01
4.958208371240959145e-01
5.209205543497610336e-01
5.700800137971987480e-01
6.341620093742400543e-01
6.568252031968337956e-01
6.323762793074249045e-01
6.594861237307637625e-01
6.585225402389737193e-01
6.690072558569458705e-01
6.898273034853927843e-01
6.944573690278583733e-01
7.071333589575747869e-01
6.993455948019697832e-01
7.128576538767031900e-01
7.266708088039621760e-01
7.100104803606920312e-01
7.234988360859526679e-01
6.877072160956330116e-01
6.427208279220746334e-01
6.416439170505898737e-01
6.623271586336316741e-01
6.137858040166144225e-01
5.737270249406716260e-01
5.811884843440143777e-01
5.683061928274655283e-01
5.371795675121734392e-01
5.570487852912793247e-01
5.380422334294810982e-01
5.488054790133943817e-01
5.437623618457056995e-01
5.123297840467183617e-01
4.998225253623505004e-01
5.762132169352198741e-01
6.130553807718859272e-01
6.006377646927703040e-01
5.153310612564199200e-01
4.850613407831659840e-01
4.990294486128235008e-01
4.643804540077089427e-01
4.300797099730971351e-01
4.211145863645522347e-01
4.454821272265140908e-01
4.585733621735413879e-01
4.582848060666505075e-01
4.463309942748791004e-01
4.241994145611689970e-01
3.765016675970390136e-01
3.820681390406021061e-01
4.063486706794637859e-01
4.102855665691045872e-01
4.081938929420613205e-01
4.028463129482602878e-01
4.102709310746219251e-01
4.129158984027816448e-01
3.893223080792585500e-01
3.811360787662596561e-01
3.722131816901626533e-01
3.320887947771803961e-01
3.171692645856731274e-01
3.349353747105467960e-01
3.809556428342099066e-01
3.842677364932536310e-01
3.585229133041444860e-01
3.695214355095246539e-01
4.104695768038587600e-01
3.998718403595049597e-01
3.566500096395017749e-01
3.523999679650809402e-01
3.580282464989614222e-01
3.577646240782541009e-01
3.440797923766816258e-01
3.448399140284257869e-01
3.402393535472286734e-01
3.574464803225786969e-01
4.066946249269276503e-01
4.184792182630053814e-01
3.858099933401397674e-01
3.770937131373718332e-01
3.940121580829691883e-01
3.963251004571869407e-01
3.723000006208094792e-01
3.400403688504841648e-01
3.681065325238777608e-01
3.766286589233082127e-01
3.088291798298192781e-01
2.703454109120613236e-01
2.984300989767098011e-01
2.955372180235937840e-01
2.486353229695301703e-01
2.615707251252844534e-01
2.648386874830853110e-01
2.813712329070240936e-01
2.712993713835604170e-01
2.229227349391229296e-01
1.924294342996392682e-01
1.869926689070875170e-01
2.050763543749917761e-01
1.615092977447626921e-01
1.655478236868550557e-01
1.618868291753150501e-01
1.762246931937097305e-01
1.705891264509773186e-01
1.827125270900108733e-01
2.012842868010191189e-01
1.510338351804451085e-01
1.210345892067452023e-01
1.529868198711918093e-01
1.489328151478437612e-01
1.698421055397767443e-01
1.531482166609363094e-01
1.417981113452892183e-01
1.059137387009455034e-01
1.267108480055847974e-01
1.699215972878653225e-01
1.476295195173036867e-01
6.267682062363211237e-02
8.249460970531606596e-02
1.089852544997096523e-01
8.540564514645503091e-02
8.819732867073640237e-02
9.440015142708903240e-02
1.199391210547867404e-01
1.137181373798976103e-01
1.770569654764032885e-01
1.813784141473253064e-01
1.556782325613635665e-01
1.592203846795207656e-01
1.452073617781093617e-01
1.127519906746033973e-01
1.557016288455250752e-01
1.877165585529828873e-01
1.981076666206788572e-01
2.013090735199763448e-01
2.294360190022182722e-01
2.934837645267640016e-01
3.186432626929817657e-01
3.817369299394940407e-01
3.987027292135743584e-01
4.045038576911119677e-01
4.499225301911471964e-01
4.560552428843401840e-01
4.793491406343375338e-01
5.131549229477285756e-01
5.046600707742991965e-01
5.252520595744173404e-01
5.514211886774921245e-01
5.427357787276470003e-01
5.734406269089822317e-01
5.513276401689356510e-01
5.327683649707279923e-01
5.465813812037764174e-01
4.819770070049460564e-01
4.587999405860840874e-01
4.715115117016331348e-01
4.531165212865226333e-01
3.807407343866111016e-01
3.563489787859210334e-01
4.013519336889453948e-01
4.178993595704442177e-01
4.176033827332928383e-01
3.791420102234508427e-01
3.251351988715675545e-01
3.074693512335626711e-01
3.309077874680135256e-01
3.484528457800361023e-01
3.657673686756247600e-01
3.269000787253971696e-01
3.032210603887153244e-01
2.774913957882678694e-01
2.331018885238669569e-01
2.320330546827275020e-01
2.152975453007073270e-01
2.209606287087924892e-01
2.308934621588735747e-01
2.662510656103665996e-01
2.799022914818711794e-01
2.295621461003190533e-01
2.265312249374527298e-01
2.361935315576967065e-01
2.518282132846568211e-01
2.527429668047310729e-01
2.180776306390763974e-01
1.853494109326870587e-01
2.057233428471636205e-01
2.080711446038497059e-01
2.637719232775808109e-01
2.309753485764250713e-01
1.700661525960669995e-01
1.608881134189486806e-01
1.684587705455086737e-01
1.336355210601818388e-01
1.467078973175117151e-01
1.568522555835026033e-01
1.776522278735284677e-01
2.261464994834318509e-01
2.361756530425189182e-01
1.853771333537443111e-01
1.636372725548565221e-01
1.274674044438792453e-01
1.049861791838294922e-01
1.068440043716397947e-01
7.336715348192306141e-02
8.022251799710869435e-02
7.450072332753278348e-02
1.024155947459569893e-01
1.462049277275114245e-01
1.362532616095482596e-01
1.172993096115138023e-01
8.316002009601802802e-02
7.073393139872019564e-02
5.729013682495379123e-02
7.114996339720205953e-02
8.547873656213057780e-02
7.470648863671913720e-02
4.048052089131060766e-02
2.201422372438998146e-02
2.850909634394423187e-02
2.848584570044951705e-03
3.420174188491353906e-02
3.931966732603229403e-02
2.851987605641826892e-02
2.263131710112513406e-02
1.866981414859110455e-02
5.176587424912283686e-02
9.972284344548772161e-02
1.383851318833896615e-01
1.233071505641972765e-01
9.065784845071500619e-02
8.338993702209114567e-02
1.297957308777907548e-01
1.522607619978736393e-01
1.687084942865430537e-01
2.068955448039251355e-01
1.919690069257193321e-01
2.328773670325054446e-01
2.409541458874275011e-01
2.678035945305526910e-01
3.060344170624106352e-01
3.147509661572146511e-01
2.879829643392267657e-01
3.238469902983083792e-01
3.458338905686549891e-01
4.173208776524283126e-01
4.185121400196041841e-01
4.835371484611319381e-01
4.822520119531537031e-01
4.756650565995733104e-01
5.240648547002874080e-01
5.662120520044469085e-01
5.354382758227211880e-01
5.733347666890405980e-01
6.406080083439226192e-01
6.711341167955813258e-01
6.632574439392926458e-01
6.949576588380069753e-01
7.589319258172197991e-01
7.883508213527075092e-01
7.738782210912527049e-01
7.632713932936955326e-01
7.694017709263345495e-01
7.889064703518228194e-01
7.939677127279458624e-01
7.956454147112046460e-01
7.980946382721494370e-01
8.153371233387626260e-01
8.535534422461731330e-01
9.030581998238114139e-01
9.238297695471051618e-01
9.081870971716839991e-01
8.668487628533954048e-01
8.426694325877903680e-01
8.599724546897489219e-01
8.315325310880182785e-01
8.322285942586694629e-01
8.685698174955851503e-01
8.495703961316339869e-01
8.265462693504536107e-01
8.190900452290469369e-01
8.461950341816477650e-01
8.658566438287164102e-01
8.793261056725827363e-01
8.607839614204710887e-01
8.553130837543342357e-01
8.800320810370934055e-01
8.027303625828901001e-01
7.554828121146852649e-01
7.522650104603411103e-01
7.115722305616023480e-01
6.882916250758529531e-01
6.802429344440815706e-01
6.341503312581402430e-01
6.431122619673204088e-01
6.465657444665245945e-01
5.864906054208554043e-01
6.043574896621517478e-01
5.883823389024667172e-01
5.741737221220484244e-01
5.696597798662405010e-01
5.613428026994582432e-01
5.055195372591233527e-01
4.920712119355188929e-01
5.033368661650113873e-01
4.485623067820638243e-01
4.275711352704380519e-01
4.648793421573843565e-01
4.438929263285550930e-01
4.499212459890135629e-01
5.022681294210005198e-01
5.455634039173863359e-01
4.913799532368710032e-01
4.436646306569894116e-01
4.245566983480951739e-01
4.433462865149238041e-01
4.396137171465908655e-01
4.550826046209389686e-01
4.253810253244329487e-01
4.154996290885930588e-01
3.744895283976429345e-01
3.443745155055107365e-01
3.486699688360365146e-01
3.459219641122160960e-01
3.616568256016807759e-01
3.724419765037225161e-01
3.538401304232869915e-01
3.890735946215563845e-01
3.964627298179134729e-01
4.203021121525375436e-01
4.571321265457272132e-01
4.404468170190002918e-01
4.452546501382321220e-01
4.143181712092653957e-01
3.821020035138941728e-01
3.695787391178124714e-01
4.051820359511499881e-01
3.696448168631765729e-01
3.150983667884844630e-01
3.207022977749969805e-01
3.215499934904749724e-01
3.245905900270462108e-01
3.781174264970212362e-01
4.040658204361558536e-01
3.901124296415023895e-01
3.614967846045195610e-01
3.413038827616310389e-01
3.546023283580960750e-01
3.795168505218600719e-01
3.480882531241740185e-01
3.461307085294098584e-01
3.742687674140837140e-01
4.029419340702327657e-01
3.763588958373682014e-01
3.461059396256507270e-01
4.023356489356773591e-01
3.787638227763703846e-01
3.889526481179057527e-01
4.108493470496267230e-01
3.883901791091364797e-01
3.932394687324333171e-01
3.610880078000631155e-01
3.455277353533208751e-01
3.520551427116089260e-01
3.557396497231676280e-01
3.544667905731809232e-01
3.229792004393597371e-01
3.238159422841513924e-01
3.345619863874390032e-01
3.588107996220055163e-01
3.259503630786844131e-01
3.249813257512277898e-01
2.778303539365216679e-01
2.450042529467630070e-01
2.318664478839626009e-01
2.548663767787165413e-01
2.701992310335215031e-01
2.629030426638792051e-01
2.415269420306835613e-01
2.344242912631185061e-01
2.426060087761202078e-01
2.093152711545860356e-01
2.178417217286840180e-01
2.706793558379266829e-01
2.782256442806896324e-01
2.440230421911808445e-01
2.515953759503404830e-01
2.132928706907168681e-01
1.830175870946900152e-01
1.495986583601408848e-01
1.084501327851325470e-01
1.245752966054325672e-01
1.505231009942263887e-01
1.171189445204777191e-01
9.489403177545113754e-02
5.983654022745541617e-02
7.609900234918905160e-02
6.529491434755654855e-02
6.402520075774298380e-03
2.512626139793416868e-03
3.492299055395331475e-03
1.991335654770527708e-02
6.559615447666519716e-04
1.444443443750498268e-04
5.275447928077958704e-02
3.923532589347567684e-02
2.102328965691846463e-02
5.647862934779347005e-02
4.451463512502038672e-02
2.610000708222715363e-02
-1.064687534850057397e-02
7.909811845688386606e-03
2.735040710047749110e-02
1.509169111285181553e-02
-1.770181336390084029e-02
1.507233696803800260e-02
-3.227335305211698376e-03
-2.083811452715043921e-02
-7.243182855418644692e-03
-2.520679563446142843e-02
1.778663956548448902e-02
3.315194120277013129e-02
1.880012247802710645e-02
4.126139997078902277e-02
7.323060897430466731e-02
6.871432901335169929e-02
7.292142130794949939e-02
1.075918491137277389e-01
1.519921312058022944e-01
1.465850889113725630e-01
1.738999322339797593e-01
2.365275988702282839e-01
2.564217041388213159e-01
3.122489814884122916e-01
3.362692130446803818e-01
3.621851651104040504e-01
3.796462697427387400e-01
4.047556205133968077e-01
4.434135112876695373e-01
4.647015812232618837e-01
4.885140388374362708e-01
5.089741778389370586e-01
5.453704176990453734e-01
5.710240155923053118e-01
5.876758860066353396e-01
5.587939995602001497e-01
5.388149853490353802e-01
5.776768993036196509e-01
6.156388702059845119e-01
6.183063989282885364e-01
5.971823564353685443e-01
5.973906685163326014e-01
6.323173217354601805e-01
6.520718444624571397e-01
6.639033903086473121e-01
6.188083548671446943e-01
6.071302150226542960e-01
5.440377402939373663e-01
5.576430396549104662e-01
5.822908002242664915e-01
5.367685105908360788e-01
5.517538937630666052e-01
5.566726817771558977e-01
5.284151126458472847e-01
5.085828203322014796e-01
5.095883202200914841e-01
4.926829355863180937e-01
4.812796201689875653e-01
4.949317147532358296e-01
5.190298717978637510e-01
5.058520484482015300e-01
4.819361385617284554e-01
4.145275110590236900e-01
4.165615658114225073e-01
4.311227582269872016e-01
4.165753032668300104e-01
3.790394865248845613e-01
3.946299354531564996e-01
3.672382403212615665e-01
3.479469459163694878e-01
3.415188719598800104e-01
3.510825066526800375e-01
3.266763594545393778e-01
2.903728355018510565e-01
3.030094320941070785e-01
3.464328507411960079e-01
3.485389742216349895e-01
3.554246632679765594e-01
3.773250846161249616e-01
3.764287858534214326e-01
3.965637019438275623e-01
3.822361974087102876e-01
3.363601820975505863e-01
3.543192543765645852e-01
3.441113160311264907e-01
3.666965995574855142e-01
3.578171986646741520e-01
3.615590750274135790e-01
3.775998970568443247e-01
3.960247051543659969e-01
3.729360581200437119e-01
3.711425765342114547e-01
3.967284654084890505e-01
3.976061064368795472e-01
3.669935950146197001e-01
3.571313685671118621e-01
3.860720598618287980e-01
3.709360300658245402e-01
3.228530754505611888e-01
3.337803394201136475e-01
3.442555583153750765e-01
3.618429853659418938e-01
3.044421044985868852e-01
3.297180461446957978e-01
2.838299424855796338e-01
3.076904744690821536e-01
3.456372674526768662e-01
3.150448699749958670e-01
3.470722732146970246e-01
3.118068413453827237e-01
3.339402864138448779e-01
2.968547161252926281e-01
2.883650138260855922e-01
2.821303892514688272e-01
3.002404397352521626e-01
2.951706867284050739e-01
2.894624135648484198e-01
2.919184375809202869e-01
2.715753339221942397e-01
2.393797719886108233e-01
2.244791474775989504e-01
2.260450171828545241e-01
2.139465357162574355e-01
2.044680281130759059e-01
2.097297068050075763e-01
1.996889169716898338e-01
1.872067937987730024e-01
1.677249985825920442e-01
1.098675061611803783e-01
1.117820290879199541e-01
9.573817121300350064e-02
6.747784920066532410e-02
5.878346759209809869e-02
8.471370003108262547e-02
8.362985989385160468e-02
1.347301851805420836e-01
1.699212697683872564e-01
1.467317224566962452e-01
8.364419129810998776e-02
4.523809549014167625e-02
8.290314359067410543e-02
1.272828754126349715e-01
1.020411586257432696e-01
9.278559450315085333e-02
1.339328463067493424e-01
1.273131288666650707e-01
9.133103614050447350e-02
4.840366637356785517e-02
5.696085775512166327e-02
4.984665451817384130e-02
4.425466777376727001e-02
7.896535452016671675e-02
9.193086441710858481e-02
1.151125489026118692e-01
1.150146906718187145e-01
1.577273263718416696e-01
1.562979419576664974e-01
1.959629360673500187e-01
2.543646407765868811e-01
2.446216168663706836e-01
2.442272021594664722e-01
2.610438725273871441e-01
2.349654966895098063e-01
2.547907438934363111e-01
3.100586423258810953e-01
3.668070671287240736e-01
4.000585419821761080e-01
4.087313334027845024e-01
4.127851748621734762e-01
4.391419457087097356e-01
4.371998413891255431e-01
4.545524579017296007e-01
4.833751642290372574e-01
5.064760276849461507e-01
5.108683280393506720e-01
5.229453467837922309e-01
5.445957339359427385e-01
5.668789645377487751e-01
6.020050411221657960e-01
5.941873611375101394e-01
6.166808210361814924e-01
6.761648330614820068e-01
6.895220404586429597e-01
6.759471095388991380e-01
6.638243589766005259e-01
6.720286705532200200e-01
6.391471209284320665e-01
6.723528504685181151e-01
6.356277998688504294e-01
5.821760004579874526e-01
5.539904586447365054e-01
5.390997415132577908e-01
5.010923184357931603e-01
4.810904772512395455e-01
4.988664787600812223e-01
4.925526804302619577e-01
4.832458179965731238e-01
4.383759526707629028e-01
4.259656988850227255e-01
4.579073303265195904e-01
4.536434554257580132e-01
4.304719497176071608e-01
4.285422971011272342e-01
4.200009258526958278e-01
4.181407639424770117e-01
3.880722991839620217e-01
3.625892465696791134e-01
3.970561042697742793e-01
4.201873265468772378e-01
3.676241966017144147e-01
3.262504934527183376e-01
3.955630190005841595e-01
3.986394567409193845e-01
3.579669621543779545e-01
3.585830257707346980e-01
3.562889000765504521e-01
3.614434629449941316e-01
3.518823138194515643e-01
3.588774432887800181e-01
3.650548604623230498e-01
3.551654560078805201e-01
3.466185053755939105e-01
3.144505011111582982e-01
3.463660181259502480e-01
3.426181993964742545e-01
3.662130021467571162e-01
3.813887920794832853e-01
3.307847474262949894e-01
3.309741742878007376e-01
3.161208541967137631e-01
3.075474656367579440e-01
3.270245290237797087e-01
3.226491890482948710e-01
2.981457463051604417e-01
3.074745334361549953e-01
2.968450798755455922e-01
2.656931214837122135e-01
2.659052394529367036e-01
2.308896898647199714e-01
2.421167131636653702e-01
2.452330749624183626e-01
2.538743599688785824e-01
2.466099180334419827e-01
2.386655806476863928e-01
2.721037398600612001e-01
2.394634603783749316e-01
2.320444815742481459e-01
2.118355081581169697e-01
2.097191820954432961e-01
1.924414556332038617e-01
1.984504750212303104e-01
2.397453510445668179e-01
2.394946499526323103e-01
2.150275297639571426e-01
2.065130335654317695e-01
2.350814100714391230e-01
2.146212408826395635e-01
1.782577524828135307e-01
1.342908134298625433e-01
1.491262839429240983e-01
1.792432325197945153e-01
1.603581275458131061e-01
1.361536453988469175e-01
1.181276859230964427e-01
1.133796649707377174e-01
1.143707620933684249e-01
1.468498482665533122e-01
1.577931380468308997e-01
1.608294854714451549e-01
1.439340423566013161e-01
1.705948133675840306e-01
1.633616525826755983e-01
1.510141804362634677e-01
1.639700370699557763e-01
1.658409606021722382e-01
1.397044364297924390e-01
1.223123610660450805e-01
1.101193794966527084e-01
1.282351211609926989e-01
1.523821036993638078e-01
1.137832135561057806e-01
7.311663547169608424e-02
6.681016019300688169e-02
9.331617082393060814e-02
7.930009980932656299e-02
5.556891356866880405e-02
1.405147561289459175e-02
4.810750308926776270e-02
6.769848811223938556e-02
9.540120262293022568e-02
8.489424792003656683e-02
7.812190542247249292e-02
9.579417236709880656e-02
1.041674812758504876e-01
1.249704736287505641e-01
1.254922493470846945e-01
1.368285617341987170e-01
1.538699263362588443e-01
1.313355198786368416e-01
1.100056833958245606e-01
1.403492629235621181e-01
1.642752889285377382e-01
1.888375927906509322e-01
2.139271056027015061e-01
2.310523727213001366e-01
2.844728466460046401e-01
2.711235337624633424e-01
2.635133696708369389e-01
3.548237583253693872e-01
4.109834514652609960e-01
4.546881029442928490e-01
4.972382690216578527e-01
5.087511246055007597e-01
5.173452744627637934e-01
5.461707256947069267e-01
5.496147081012272562e-01
5.918929208748190396e-01
6.335780219843466510e-01
6.567769989237632888e-01
6.788214426900229803e-01
7.311671183596534229e-01
7.500848880945938379e-01
7.546359251526522094e-01
7.387935909770126930e-01
7.463391606566338599e-01
7.221278640263103510e-01
6.731425717761222449e-01
6.818078375170596450e-01
6.937174711958753459e-01
6.903565578502078859e-01
6.591830828923459507e-01
6.460041470407804631e-01
6.584558135436607840e-01
6.309308861475922958e-01
6.070758353842740096e-01
6.026129227130633259e-01
5.995747653241402242e-01
5.687941251200737680e-01
5.745568415622203107e-01
5.543133876648589364e-01
5.397358225320926239e-01
5.536291837053308740e-01
5.092406810597506217e-01
4.888678308296726116e-01
4.765867450202317945e-01
4.772524056018995764e-01
4.462287650441094655e-01
3.951100794258262106e-01
3.840800218618136697e-01
4.133158439500504988e-01
4.064475279671846963e-01
3.785337039239441981e-01
3.631942219519809223e-01
3.456707265282618069e-01
3.305372585300532240e-01
3.274633838397150720e-01
3.454663661481491843e-01
3.829970769726868673e-01
3.852774375734864254e-01
3.576401642697901173e-01
3.338479575140544942e-01
3.288247440331644178e-01
3.312167340366641843e-01
3.470179469571295638e-01
3.885368443552817963e-01
3.924804738495450418e-01
3.540328929430737737e-01
3.346910984954887258e-01
3.877017770101566230e-01
3.403402843383097065e-01
3.646041767034553516e-01
4.035723058436042621e-01
3.782459986177671984e-01
3.422105123606027366e-01
3.098342118168543324e-01
2.852318648704949000e-01
3.038774904470105120e-01
3.180773785935924747e-01
3.525101122836728496e-01
3.439273849234665836e-01
3.405874769237525745e-01
3.747814946766944155e-01
3.421264632811919504e-01
3.494218668594721855e-01
3.633177609596008883e-01
3.742237257813371687e-01
4.240901108498559280e-01
4.265634725817377126e-01
3.648044782500672878e-01
3.678632944708504215e-01
3.941445675757637157e-01
3.801218210354576077e-01
3.086965414016436537e-01
3.653668380929580572e-01
3.216108977603298058e-01
2.987652903618116529e-01
3.140637056329058097e-01
3.109647567716654626e-01
2.960399708631968885e-01
2.622459572024674612e-01
2.773564271250197333e-01
3.104128956396117744e-01
2.804361697527656960e-01
2.706457907914012750e-01
2.519295023908566522e-01
2.398288335885197520e-01
2.582331617542316660e-01
2.371785900505507527e-01
2.136445173875604342e-01
2.035809923072729455e-01
2.024026363186687272e-01
2.335683923872674539e-01
2.662344452176221288e-01
2.901624092410033384e-01
2.607774584127020012e-01
2.692025617410467864e-01
2.364908383326977948e-01
1.985111690730453904e-01
1.871897696198447369e-01
1.831365971055568531e-01
1.547182629065212423e-01
1.873404495000575709e-01
1.842556031189688248e-01
1.757733726803481500e-01
1.335313939737391431e-01
1.239139071889283628e-01
1.071082966372478851e-01
1.100299232165061619e-01
8.349011895543415052e-02
1.042772015105862538e-01
9.861135189032742276e-02
9.117850295911938963e-02
4.365045165227519897e-02
6.208329148968318167e-02
6.764837307505770780e-02
5.248094218493866425e-02
6.354233908509530904e-02
3.987194546257942507e-02
2.101610912935000797e-02
3.685347618894330157e-02
3.765393604497675045e-02
5.386236764663859811e-02
1.044488574417126864e-01
1.450269252387575980e-01
1.641253435748436240e-01
2.079547107022289565e-01
2.174658702662575216e-01
2.123625875245474248e-01
