3.394712695111204437e-02
5.025948641711855402e-02
2.796240554463180414e-02
5.521620548801331463e-02
7.668189375619116621e-02
1.138982619770893823e-01
9.847884291647511501e-02
1.443230296354789388e-01
6.186508314115883589e-02
7.414516952404429095e-02
6.336672036588819612e-02
1.483417885661407476e-01
1.171751082756816859e-01
1.246827006683104144e-01
1.083736365623103881e-01
1.231843163953178222e-01
1.549335194445965458e-01
1.673165614783762578e-01
1.283002950069621895e-01
1.973775303799605585e-01
2.048883488622411930e-01
2.625128746332871521e-01
2.471843267410047951e-01
2.521256241744881943e-01
2.963988393120499110e-01
2.789533776476202376e-01
3.518857867034418940e-01
4.523775454287868314e-01
4.722108652655481187e-01
5.606033320079770732e-01
5.377557630372453712e-01
5.509688714276997912e-01
6.086443950687444593e-01
6.462277094845330083e-01
6.323752607969861383e-01
6.571864512974429084e-01
6.673575338943682489e-01
7.194059447750554837e-01
7.703371376224762423e-01
7.360875193161942054e-01
7.609954162702243785e-01
7.393276536580494218e-01
7.755840550558702473e-01
7.765710732926768278e-01
8.101017601281461644e-01
8.020112218985325780e-01
8.458880398263519673e-01
8.352400937302538741e-01
8.456732939968687468e-01
8.540525897409027012e-01
8.078341256585056529e-01
8.154112835771373247e-01
9.175372512158189720e-01
8.738445584665680554e-01
8.429417214965833072e-01
7.757667070898537354e-01
7.687589963294784168e-01
9.102671374120909764e-01
9.198408024893350854e-01
8.606292107867453689e-01
8.408890362835742538e-01
8.684020049223180049e-01
8.689349255044269693e-01
8.986829921857396597e-01
8.734949190879450764e-01
8.698187283488233446e-01
7.815990031090085388e-01
8.197228087187441448e-01
7.419783893971565458e-01
7.298709636099892650e-01
6.686036381981276255e-01
6.599589909911379726e-01
6.689675762482177879e-01
6.634037608511380579e-01
6.587295110330417813e-01
6.152008162408242331e-01
5.745574185960374836e-01
5.521541705538499656e-01
5.257887596750508985e-01
5.370217024130421457e-01
5.514405822214184516e-01
5.655685825860570226e-01
5.203369223585312398e-01
5.663052460295330270e-01
5.188763002464515939e-01
4.657369996114779087e-01
4.397266318450179790e-01
4.626294520893035611e-01
4.111175282968869693e-01
4.808971758256364581e-01
4.654434283791526461e-01
4.650597922153808517e-01
4.645729449741931583e-01
4.216794683704130908e-01
3.764708755258823203e-01
3.965034354558898411e-01
3.961542951183020245e-01
4.189323913865089510e-01
4.646135620834688229e-01
4.228253128444196540e-01
4.001359033821230704e-01
4.603784015648817451e-01
3.923436706725049739e-01
3.759746577373368481e-01
4.242484430979379662e-01
4.016387780683842723e-01
4.115988742370207398e-01
3.749982708343948534e-01
3.844937674234460423e-01
4.271585242805330807e-01
3.900857975804519762e-01
4.189695747811413851e-01
4.144740198823969601e-01
4.718111528198449811e-01
4.572494676377629741e-01
4.738486533299586800e-01
4.510962549120227649e-01
4.768898859413986946e-01
4.916788956729353233e-01
4.805286282801127240e-01
4.986038559134182147e-01
4.496038837551293854e-01
4.664052672622804874e-01
4.405266196379213350e-01
3.739203594560008281e-01
4.093510117086519573e-01
4.430038831947340494e-01
4.727177187942894210e-01
4.233260260085925930e-01
4.597954106794244211e-01
4.395186421084844586e-01
4.003383033182666417e-01
3.611590243942886524e-01
3.560862920560095013e-01
3.515438787807676491e-01
3.354279541899267136e-01
3.801050497019220487e-01
4.034239644481667497e-01
4.256715407715501165e-01
4.140491281184793260e-01
3.358833300749944906e-01
3.500667785080438521e-01
4.213140638169365348e-01
3.884467761935391783e-01
3.877841473039783105e-01
3.396084527135531106e-01
3.486773388645799665e-01
2.790811989110862368e-01
2.880496589457872125e-01
2.453518906204387451e-01
2.275664526231892804e-01
2.444315893932320349e-01
2.695202861181399401e-01
3.199652913334429249e-01
2.849647941814614782e-01
2.758148557347055441e-01
2.701625191048154795e-01
3.333661140920771704e-01
3.013889989156037785e-01
3.325437059809379647e-01
3.879050659321955363e-01
2.543026034176614769e-01
2.743839305099233239e-01
2.696458719034660056e-01
2.697271433058099910e-01
1.975699499974644113e-01
2.256859129841929101e-01
2.288683908767009112e-01
1.867229557498649439e-01
2.662359837589441947e-01
1.563207263449307161e-01
1.539098851735344331e-01
2.251468934096655661e-01
2.521658913282307513e-01
1.805567006634918037e-01
1.481315638320052641e-01
1.617598256276349955e-01
7.112535236608520661e-02
4.010699074384720120e-02
3.624360808751522778e-02
1.041587665018750275e-01
8.981794640214424419e-02
1.863055885908022069e-01
1.622005405955825319e-01
7.253484551523724233e-02
5.688685447736266387e-02
8.742786675809233188e-02
6.988576593444484342e-02
-4.107578591604880980e-02
4.679330974689446115e-03
3.899443499496797749e-02
5.151227443152529839e-02
6.597039060991480297e-02
-3.090086497802915777e-02
5.926488378268579549e-02
7.660401406742717301e-02
5.666061283517059149e-02
4.350473035659695870e-02
1.183592439735041760e-02
4.579401519867740133e-02
1.120964224629114186e-01
8.160012378491537932e-02
2.680827826073133371e-02
5.165866011983639983e-02
7.678574280365699223e-02
1.272574517245320114e-02
7.940476520091088730e-02
1.209869516194564260e-01
9.014663112518378485e-02
8.107367749490532183e-02
8.562287583922129075e-02
4.999880846549094315e-02
8.711672349521473735e-02
1.036688238187445099e-01
1.021803544754490978e-01
7.903073256544176917e-02
8.181198822711890917e-02
1.746053707524552467e-01
1.922591764296111838e-01
1.813817028025842548e-01
1.784056874810234505e-01
2.644826617452160633e-01
2.743655505451753074e-01
1.730626439827436802e-01
2.347662906125182469e-01
3.174504720387709700e-01
2.916299024039697430e-01
3.178389140333436891e-01
3.515088815498319530e-01
3.994948020491392304e-01
4.089267461002368265e-01
4.486788235804629044e-01
4.495055368637760895e-01
4.886227533795277078e-01
5.879355862235980945e-01
5.956206818674707471e-01
6.493982013241836881e-01
6.742363900425383250e-01
6.342865026528992090e-01
6.799150450451163508e-01
7.764824257198001956e-01
8.302918253955658967e-01
8.128809018740109638e-01
8.454594236563952592e-01
8.217462798431728332e-01
8.867095425444455614e-01
9.786250698187184405e-01
8.436169538469614482e-01
9.071852012280818833e-01
9.661025352312376802e-01
9.422710729798113860e-01
9.414101963847123500e-01
9.138226813065553067e-01
9.778856872429216862e-01
1.013750597709182300e+00
1.059938451814751881e+00
9.799634885624741720e-01
9.490022738066129504e-01
1.018468180380084132e+00
1.037871798970624537e+00
9.835387680529983356e-01
9.698894474599966120e-01
9.524146500100286739e-01
9.018758443629758537e-01
8.979921510297882437e-01
9.181641399798944336e-01
9.444019095721601920e-01
9.028543498686261159e-01
9.437657961644628779e-01
9.275936750812440179e-01
9.170072901413636179e-01
8.971228996021473057e-01
9.489631315509003961e-01
9.683085715249013514e-01
8.806260161101958639e-01
8.750567494895870047e-01
8.590181868010359212e-01
8.271872127204079606e-01
8.459108432941948585e-01
8.819929602857110584e-01
8.889014054196235914e-01
8.308188889129258792e-01
7.875655213906204155e-01
7.824681071765551277e-01
6.967629331379648905e-01
6.857095235204357930e-01
6.672668811209091499e-01
5.886314827746599310e-01
6.282353108504462602e-01
6.934757451925245286e-01
6.601229371619994346e-01
6.479662685522692422e-01
6.492068906505419346e-01
6.135854949568501082e-01
6.207133081854341317e-01
5.995640905599497472e-01
6.693015053833983874e-01
6.132591538358003191e-01
5.581452396680759431e-01
4.731146459136567617e-01
5.050445440471517111e-01
4.851068888903882215e-01
5.282113253231197625e-01
5.303121839577522589e-01
4.727444863305951261e-01
4.593217031360922187e-01
4.783363042373642848e-01
5.703642606159876616e-01
5.186845161021956807e-01
5.120583547375807676e-01
5.010115560740213692e-01
5.161043680488364149e-01
5.012191301142124855e-01
4.837609391859576391e-01
5.369226944057503559e-01
4.952082808268036263e-01
4.865258373224143895e-01
4.646427600236265887e-01
4.881251711640988700e-01
4.570911458287403861e-01
5.396524251638490366e-01
5.267946392065840922e-01
5.071212331970709197e-01
5.020350673000559816e-01
5.512487343061165390e-01
5.324012825373819480e-01
5.497039604602239615e-01
5.314804641330889146e-01
5.038731251606370920e-01
5.468568582085796548e-01
4.986083983521859553e-01
4.831619005941770739e-01
5.251881945430166843e-01
5.363387799594794281e-01
5.686529707731919903e-01
5.213462908681072427e-01
5.618083179284627526e-01
5.732766847202408478e-01
5.913661563937349097e-01
5.030437232790440083e-01
4.426840244921960710e-01
4.657767304468080627e-01
5.198933713812876611e-01
4.234511681965191787e-01
4.304303830777806428e-01
5.088397500917383187e-01
5.028019365433814558e-01
5.502349295604000989e-01
5.668333681077278863e-01
4.966164122405836712e-01
5.019641210604810500e-01
5.212935524455664105e-01
5.946106662666451603e-01
5.338095096564066111e-01
5.578900143638735321e-01
4.993421302925017402e-01
4.340277974790700544e-01
4.498260154504963859e-01
5.016683744501367892e-01
4.789641500795187579e-01
4.537619492579088587e-01
4.620331000079846984e-01
4.754050733661824846e-01
4.976816145006081604e-01
4.958026050963734166e-01
4.666993123211044536e-01
4.958317005060685068e-01
4.751097090837652637e-01
4.353618159503907514e-01
3.810741925934970076e-01
3.954709284047319140e-01
3.950191767134479393e-01
4.302257403067158426e-01
4.401545368135686420e-01
4.287708824152934861e-01
3.710799886810290382e-01
3.603586871966864558e-01
3.297685062486599983e-01
3.293741509925186550e-01
3.548640688023275147e-01
3.702255241281483533e-01
3.723948699394937778e-01
3.199189541103086287e-01
3.293387256933894003e-01
2.767196788948363961e-01
2.759401050076534245e-01
2.198259145265950565e-01
2.095557682095402774e-01
1.992048862360100703e-01
2.676543860628839977e-01
1.913198348361110634e-01
8.340541900864203995e-02
1.529832051499339096e-01
1.498386457215824252e-01
1.428476000383080979e-01
1.329928491309422256e-01
1.035365803472767382e-01
1.431595595617365657e-01
1.330768280685149518e-01
1.067937300957844116e-01
5.872758327606848044e-02
-1.310149245957165087e-02
-1.090805064457667228e-02
1.083764121492039600e-03
3.463300816026176898e-02
3.489673201136418018e-02
3.790497287292091122e-02
1.085267234789024510e-01
9.160313547129880773e-02
8.498013701832660138e-02
1.643102690015035144e-02
4.642518907198615180e-02
2.392800775900142188e-02
-5.648871107135492939e-03
2.588850274422007866e-03
-1.390698460817027353e-02
-1.004564356242874240e-02
-1.314259748559718291e-02
4.427426329569636443e-02
-4.981243299628779035e-03
2.115652421626164001e-02
7.585426279896155879e-03
-9.305666006739701443e-03
5.120272211750530322e-02
4.047585469384663154e-02
3.306471365741932289e-02
8.109933695548465771e-02
8.825931757818271384e-02
1.624178579128391364e-01
1.905076528230446320e-01
1.569754849986690348e-01
1.831744743881845439e-01
1.768174590022227322e-01
1.426538935468019131e-01
1.322935206938475328e-01
1.253598069098541823e-01
1.191025594446628311e-01
1.276242901059328749e-01
1.211996853557873594e-01
1.625294623970033048e-01
1.901925016297359994e-01
1.790418532916431826e-01
2.789839709504033372e-01
3.608173524864748960e-01
3.252700720308834836e-01
3.682207002952729291e-01
4.209709903778343087e-01
4.949877475143925065e-01
5.216747133082642041e-01
5.586529448591643909e-01
5.787361555584762396e-01
6.990038412102336229e-01
7.248459873388356511e-01
7.833202041675686456e-01
8.013403224793027579e-01
7.450386881926760463e-01
7.477693789058538210e-01
8.085891475916612281e-01
7.241387105979365524e-01
7.758556447224504993e-01
7.694252904657779002e-01
8.861263419936430408e-01
8.579037863764634730e-01
8.448327774000504720e-01
9.125992798538091755e-01
8.325389172571761032e-01
8.215047894649269988e-01
8.350185234457141448e-01
8.876063195463155253e-01
9.186386851089622940e-01
8.521232843809831703e-01
8.738361877945636236e-01
9.229663800355651926e-01
8.677552729567753476e-01
8.165757637531242397e-01
8.050618209099889011e-01
8.526288418855773044e-01
8.378103467943964766e-01
8.560567965176705263e-01
8.247235448457030937e-01
7.728750580999955710e-01
7.329485540835912749e-01
7.618243015203710611e-01
7.330242952014370816e-01
6.874073914024849685e-01
6.946549693471486542e-01
7.042611294831311319e-01
7.225878795397113752e-01
7.251390959304560013e-01
6.952680913550606245e-01
6.705637277045238820e-01
6.162435228293737799e-01
5.965105590121000390e-01
6.158220600209231010e-01
5.192431574715757892e-01
5.407236111737303563e-01
5.578990972557269501e-01
4.991090246892466720e-01
5.227121556857643458e-01
5.107438130507873097e-01
4.713290776916415070e-01
4.363308578070922983e-01
4.724991737396941338e-01
4.212687969285149880e-01
4.517894395011243791e-01
4.328135415044727097e-01
4.700185060244465030e-01
4.430733240760467706e-01
4.371647049709985189e-01
4.202303923615840486e-01
4.126068740332642371e-01
4.178752630499368848e-01
4.151817885443983003e-01
4.217942694617377586e-01
4.457299567479485192e-01
4.205059685343078280e-01
3.586637108581712807e-01
4.226992008191782779e-01
4.662038750315057323e-01
4.867299652757629547e-01
4.848656395544362896e-01
5.195431477258194430e-01
4.930859922460393285e-01
5.636049095301629563e-01
5.594899634584624692e-01
5.809410385527016274e-01
5.482597413938745667e-01
4.901694655824226921e-01
5.177763352990522039e-01
4.950927528787540943e-01
5.014179108845558952e-01
4.791946364653383861e-01
5.005760382432141720e-01
4.453939253702053347e-01
4.813502777954451473e-01
4.631968488926423433e-01
4.170915083158090453e-01
4.376813404870106838e-01
3.852004595300080325e-01
4.380305474856917569e-01
4.558806629225011786e-01
4.760515149121004042e-01
4.832014950160649081e-01
4.984874982141255240e-01
4.502068274312018836e-01
3.869564408378993181e-01
4.552576639829317706e-01
4.789584164998580973e-01
4.906693158505194274e-01
4.349489539241184755e-01
4.670000899684303430e-01
4.324961868151435684e-01
4.528572656004690167e-01
5.061741914553534727e-01
4.200322068446712964e-01
4.385807201979115555e-01
4.218340449556367555e-01
4.281588923665486934e-01
4.149414164721474396e-01
4.459245767388161918e-01
4.400903742021100573e-01
3.710738736889071521e-01
3.678310900765923153e-01
4.077575883853190031e-01
3.890951284268093779e-01
3.937841401010975795e-01
3.765480748570881886e-01
3.628931430052318996e-01
3.651081464132401311e-01
3.601168668292734076e-01
3.228138500109304365e-01
2.775842433928171205e-01
2.756481536665025267e-01
2.348004251684101262e-01
1.911371580524433011e-01
2.972137635415985635e-01
3.184842713526913616e-01
2.741324089658332408e-01
2.874526366910440389e-01
2.456665065363571321e-01
2.442829883975390359e-01
2.469701199109155809e-01
2.210542367071580694e-01
1.894138303538089319e-01
1.655003465967953835e-01
1.253486163277008625e-01
1.334407016345217356e-01
1.599085714212261644e-01
7.641386901454036429e-02
1.238488263271503576e-01
1.374966838808894531e-01
1.448965367473796784e-01
1.185138992321140700e-01
6.707883451338945979e-02
1.501084613578776428e-02
4.028620431640198007e-02
-2.248641570515794164e-02
3.259891734489413911e-02
3.746329476358461336e-02
6.182148531133672964e-02
6.196746603766015160e-02
3.607150529544740636e-02
3.856696952469766682e-02
2.362032462128704768e-02
3.975936797755481866e-02
4.270101826092100039e-02
-1.196921501229807755e-02
-1.888320503573610865e-02
-4.090387547723855870e-03
-3.473183896697108752e-02
-2.599954960780870988e-02
-7.657563661305724634e-02
-3.286116230367829710e-02
-6.036903349241558303e-02
9.696383984818620141e-03
4.053174495574089764e-02
7.619794332714148813e-03
2.316855282729271548e-02
8.371401158530267228e-02
5.248895348259977056e-02
1.103077499196516709e-01
1.337635247440087383e-01
1.740191871609444163e-01
1.229131916795595525e-01
1.449406589638831400e-01
2.232272334659309299e-01
2.126229016111096937e-01
2.396956940854806928e-01
3.166904149730787044e-01
2.998943071686371309e-01
2.778269111731961893e-01
2.922888911494829212e-01
3.625838277164238344e-01
3.926163360011964976e-01
4.387583964121271052e-01
4.198010495595475566e-01
4.252828423841066852e-01
4.443960614163051659e-01
5.047176387712901668e-01
5.429102949406799938e-01
5.689680410110968811e-01
5.886854854308124496e-01
6.378836042915561055e-01
6.954975709870623302e-01
6.437755317487905415e-01
6.763260343874517577e-01
7.495858703161525360e-01
7.471590114594330867e-01
7.562029345051177742e-01
7.944480364384274296e-01
8.694008008529048315e-01
7.805553596179689579e-01
8.203173223410887838e-01
7.936644037676361396e-01
7.577155673960498383e-01
7.764599853542002439e-01
8.736265321428046127e-01
8.507914868824926202e-01
8.264185656744547082e-01
8.512337438088187769e-01
8.639022186965146233e-01
8.409324505343517275e-01
8.960974789744279301e-01
8.370662050942450083e-01
8.511971081555157470e-01
8.051086319058101681e-01
8.042865541842476595e-01
7.731246454140573432e-01
7.496772393106221344e-01
7.198815438041391568e-01
7.076242212900974993e-01
7.347612012216846455e-01
6.738468620974734646e-01
6.579068487964898626e-01
6.596455656237917298e-01
6.667949075845901463e-01
6.659031815406161181e-01
6.865499477661269889e-01
6.117875293018973926e-01
6.157876608420480569e-01
5.423681652902739847e-01
6.139877648102178842e-01
5.444477170837576097e-01
5.689882938671585455e-01
5.152563132583429795e-01
5.680927603933964010e-01
6.109468732333489527e-01
6.052982395451762532e-01
6.104164581838951165e-01
5.565320860756708399e-01
5.087163516924990692e-01
4.440064701173792594e-01
4.739802616467603258e-01
5.315545872178910614e-01
5.310674785824405220e-01
4.669584043837926024e-01
4.880850167577993060e-01
4.512058127283995468e-01
5.070609845066487154e-01
4.560055827750993940e-01
4.321267007973923491e-01
3.895744172167557307e-01
4.295063035597609380e-01
4.243297837671852202e-01
4.228450220616158939e-01
4.213576662774586867e-01
4.432400775108783497e-01
4.539164012300869744e-01
5.184199607224124762e-01
4.449583387948090607e-01
4.778779404305965595e-01
4.943724251866228325e-01
5.315390581510290868e-01
4.760063974188395441e-01
4.589170366158543679e-01
4.777794812317855411e-01
4.481890109814395950e-01
4.182176370984090896e-01
4.066513828529407237e-01
3.822656609500656444e-01
4.692260634272984454e-01
4.251638007827236443e-01
4.524212345791558398e-01
4.377718814739461339e-01
4.343710515931548666e-01
5.028285178818802104e-01
5.291002502396424667e-01
4.464029013998647155e-01
4.278918329266673815e-01
4.636647049509566298e-01
4.727575952208129539e-01
3.772092000329295702e-01
3.785306159111695434e-01
3.899946231876882941e-01
3.814039668549292217e-01
4.014781003271111204e-01
4.151628501344494793e-01
4.098260300821788826e-01
4.045904512000228492e-01
3.524262374666592423e-01
3.516308190117121146e-01
2.940060593954459955e-01
3.229551486809556504e-01
3.218288443994339332e-01
3.216516629477726985e-01
2.740845073076652039e-01
2.801759342308690615e-01
2.479577207741305023e-01
2.808411575142884531e-01
2.218676969165170876e-01
2.513263299690237651e-01
3.087462740552852636e-01
2.153483094391973607e-01
2.775205427387542056e-01
3.222831998313012147e-01
2.593339864988852828e-01
3.089292378217946000e-01
2.874060065547970333e-01
2.481386185568179303e-01
1.769070429756255947e-01
1.349906526323614853e-01
1.136811704924528821e-01
1.059525289481239585e-01
1.671088954690878314e-01
1.683671271534549763e-01
1.831308444765521737e-01
1.784467808691189428e-01
1.657808767589846188e-01
1.977339048435368118e-01
1.050271310550365683e-01
1.415906031771642370e-01
2.137476038096314812e-01
2.222759663155449705e-01
1.870766304938987767e-01
1.889514954868193874e-01
1.181630472573413637e-01
1.226101075705230137e-01
1.370377415009829680e-01
7.083918601969955986e-02
1.422537737533595970e-01
1.125496837517124815e-01
1.323215478020270952e-01
1.090790232122303416e-01
1.655148413893842707e-01
1.048203472895864324e-01
1.142211215339495461e-01
9.605602095581870781e-02
4.110637079799294574e-02
3.134911467409155772e-02
1.159976442940232472e-02
1.489366593011074401e-02
-4.803305971411400005e-03
-6.127387520801915594e-02
-8.382083636611280253e-02
-1.293075350175853511e-01
-8.641469893801012603e-02
-9.393474649293576118e-02
-1.921292832817503987e-02
2.474633345412857385e-02
-1.257558247652548755e-02
3.080647874063054126e-02
-2.154433392038358069e-02
2.320432653015127439e-02
3.561790231540583329e-02
2.720241971567034095e-02
5.254745665424869622e-02
1.282389941414678880e-01
1.010636089496054629e-01
9.959599454735587609e-02
1.211331746868264114e-01
1.054072931861497059e-01
1.139591309559501719e-01
1.305401104396469447e-01
1.408759190162123254e-01
1.042245904613108287e-01
1.253205916144984888e-01
1.789630000137913401e-01
2.147821781604587477e-01
2.250413247859527344e-01
2.655024185452329322e-01
2.815169050899259950e-01
3.376631266999993719e-01
3.902876268571160434e-01
4.476222071551388959e-01
4.360985254173855297e-01
4.498101878334376247e-01
5.081279624663569416e-01
4.977195289630663710e-01
5.950632538008066019e-01
6.423632234133751506e-01
6.893436215046757631e-01
6.560809156183483593e-01
6.531046395271630223e-01
7.188121392364875684e-01
7.810300956640764403e-01
8.348039597727748840e-01
8.805192310034818393e-01
8.475899989668065349e-01
9.273850693369278808e-01
9.256508596643672204e-01
9.338561702344531090e-01
9.058135764418595581e-01
8.892617201946716454e-01
8.702308447026378957e-01
8.788987927095615049e-01
9.146579810619533957e-01
9.058695425737437468e-01
8.777757376796180289e-01
8.324313680515216252e-01
8.639173455099866672e-01
9.266436672442722733e-01
8.905510081702951997e-01
8.684872380380603829e-01
9.070844599603193892e-01
8.946039616008581996e-01
8.144492860999643646e-01
8.013970008393739297e-01
7.959715217125018505e-01
8.560533353037362847e-01
8.281417943645773549e-01
7.657547120042957900e-01
7.525842271660863059e-01
7.375160654617004541e-01
7.709473246587494888e-01
7.247388510184193944e-01
6.788766309419904665e-01
6.760945435087203359e-01
7.340004483797221146e-01
7.203778636709888827e-01
6.354300542131536833e-01
5.576034823464675050e-01
5.789192655663695231e-01
5.417142143461846082e-01
5.935061659568904302e-01
5.593332190111179880e-01
5.367162805377990731e-01
5.391322689152447944e-01
5.465480729705529672e-01
4.753753245778029046e-01
4.564003518824602534e-01
4.683776461622756182e-01
4.430255138293385242e-01
3.986937434101534006e-01
4.751129099728716998e-01
4.720785070509398995e-01
4.651811332680533262e-01
4.592837685252578184e-01
4.775145236169656138e-01
4.555860160682473903e-01
4.054419638551475247e-01
4.352172904543836762e-01
4.201152541510963512e-01
4.336111315063259641e-01
4.377643778646783113e-01
4.494842419331598338e-01
4.378780115759967062e-01
4.282134698331229172e-01
4.223913026388739222e-01
4.367324933201703896e-01
4.126683746684534637e-01
4.007389617940236848e-01
3.987564748696282857e-01
3.967003315078925230e-01
4.477790182451222845e-01
4.190044472084498706e-01
3.887390937232878541e-01
3.701367534840029339e-01
3.783179138703103850e-01
4.129308937473890606e-01
4.382730209125865750e-01
4.557125371820355264e-01
4.144274687208373553e-01
4.522455787748270728e-01
4.771236333265081453e-01
5.141661510824793169e-01
4.915045869366373443e-01
4.729292340262479799e-01
5.068129541442778496e-01
4.831672668214053168e-01
4.596959379116546951e-01
5.023367742143652892e-01
4.711935466661352212e-01
4.436002509291157025e-01
4.305943073930341147e-01
4.567333678935889263e-01
4.756763795638710435e-01
4.634327154962971651e-01
5.012396083139708525e-01
5.056496256068044870e-01
5.114458690714076550e-01
5.003723739389311920e-01
5.342882242892041944e-01
4.669649142394722841e-01
5.129675516135925317e-01
4.905777300245597883e-01
4.780369769471668473e-01
4.692047563763344087e-01
4.417524537679758390e-01
4.812141696733554519e-01
4.406162974494260420e-01
4.350493464183051717e-01
4.369331257059467788e-01
4.260909832603090308e-01
3.497196499273252934e-01
3.248959253678973536e-01
4.190258089928230456e-01
3.444699143963299015e-01
3.355800344404387126e-01
3.636390407792309265e-01
3.515006505664077241e-01
3.264797620970505965e-01
3.415599349754211977e-01
3.191688665726701846e-01
2.557024236969868691e-01
2.329840339373509817e-01
2.283827869836591584e-01
1.953484039383975301e-01
2.891899565544191475e-01
2.991938399437200080e-01
2.590268169675828958e-01
2.730332717264385423e-01
1.492627687234766576e-01
1.235029763509797318e-01
1.609690949734818299e-01
1.999208549278551073e-01
1.562153389330558362e-01
1.753918200340531253e-01
1.590906786357614289e-01
1.105879324586783452e-01
1.763679859499680258e-01
1.854193539834378679e-01
1.548199519950951286e-01
1.961669387427665279e-01
1.624731926033331775e-01
1.441824860749537085e-01
1.077653837901129119e-01
1.350820695281102213e-01
1.215700555284274231e-01
1.146091981288899081e-01
5.542299503243447445e-02
9.759866636378503046e-02
7.655902250273476095e-02
9.365798276647287202e-02
2.460134183514439687e-02
4.225773014004816086e-02
2.393548372608571284e-02
-4.548517306203411770e-02
-1.954513926653404787e-02
4.122048377778986250e-02
8.063703146214716566e-02
4.137938901969406141e-02
6.670624710082202757e-02
-2.306719054920534223e-02
-3.775298504165539026e-03
-1.483594737671863756e-02
-1.274233715276620604e-01
-9.105937830245960929e-02
-2.233744414802899675e-02
-4.298306667403829079e-02
-5.398946340692985062e-03
-7.087971948646125397e-02
-6.366554554191528048e-02
-8.287279389926960338e-02
-8.883525947968187730e-02
-3.741188413710487548e-02
-1.192369483925095897e-02
-3.222733339917956130e-02
-5.872697444393790850e-02
-6.615178011572075967e-02
-6.833992117088344420e-02
-5.455459004395296629e-02
-1.053749913598567636e-02
2.883597507012131828e-02
1.349978606632936187e-02
9.974169713321245911e-02
8.809434310013455893e-02
5.349074003050389298e-02
1.151732617299876527e-01
1.677102667649197354e-01
1.517164070173320500e-01
1.762462638207368537e-01
1.460434951838701645e-01
1.597757189486361251e-01
1.681738824051151882e-01
2.469556167100925848e-01
2.545750333066260640e-01
2.396909560710978326e-01
3.005715099838691118e-01
3.747640240079276874e-01
3.869461914314088480e-01
4.085738591207003223e-01
4.316794884739324489e-01
4.582115576842898386e-01
4.364706780124694707e-01
4.698437105321273122e-01
4.916706158520614545e-01
5.617071712209049661e-01
6.684569541888071287e-01
6.408374270195121847e-01
6.506739317003181755e-01
7.416485808922633760e-01
8.259419873219214780e-01
8.214536482263525841e-01
8.016278839204230566e-01
7.659312145306507169e-01
7.952794259774765839e-01
8.609329279390789402e-01
8.576641839303789094e-01
8.295357005455884503e-01
8.378888683642276014e-01
9.137381351282124475e-01
9.174593961430628219e-01
9.217900845953943545e-01
9.335009658272002131e-01
9.829484726366333192e-01
9.197050211143820153e-01
8.592695975547312015e-01
9.122460028039426350e-01
9.110827066396816054e-01
9.658732642186457218e-01
9.476217114715379530e-01
9.424125714401536680e-01
9.541846066037560359e-01
9.138512047111162495e-01
8.711015309032851262e-01
9.115396433885610827e-01
9.312176914437825248e-01
8.736359516549329074e-01
8.761688498051539709e-01
8.172385101708131705e-01
8.129556792336013471e-01
7.550632070251825922e-01
8.032168223046894928e-01
7.571341272499907404e-01
7.090867778865693749e-01
7.159456530367481752e-01
7.698846669832307699e-01
7.712073612792514909e-01
7.039797049726896905e-01
7.356120790963467382e-01
7.243712786205971366e-01
6.885535555335103863e-01
6.631550017597004354e-01
6.026128124354842575e-01
5.999021429935242899e-01
5.802325950263789167e-01
5.966939849391285078e-01
5.592444694490713575e-01
6.011659437900873648e-01
6.084446212919918384e-01
5.933931086641772712e-01
5.653409845207458817e-01
5.086173513367933108e-01
5.546463466282524069e-01
5.444360610734785277e-01
5.356066183687893112e-01
4.673463821556694819e-01
4.942345045883985710e-01
5.172383149167920635e-01
5.521389338473406960e-01
5.705020784199397177e-01
5.626075905051813875e-01
5.482162395998186888e-01
4.481204383085466425e-01
4.451450823952504132e-01
4.499410957412592893e-01
5.267835479566267409e-01
5.604404773031899101e-01
4.917797656617983737e-01
4.584352805789948526e-01
4.465273540142441488e-01
4.229274828546302212e-01
4.287967480804493747e-01
4.617381932652099286e-01
4.112496644277681690e-01
4.823794540433185007e-01
4.976108173212449581e-01
5.512180746464585557e-01
4.620737358781413784e-01
4.613039919323573268e-01
3.810700936544224038e-01
3.559241204484471788e-01
3.967834867430531376e-01
4.515710062339940434e-01
4.264168600079009108e-01
4.411419161342880479e-01
4.111415048748166545e-01
3.948986937225990590e-01
4.412880040139595672e-01
4.471589147395356179e-01
4.680967118459950504e-01
4.689434509005829255e-01
4.687177504940954198e-01
5.328358055766899692e-01
4.927324381264852615e-01
4.375173580611211865e-01
4.075524776901364721e-01
4.524377936065951955e-01
4.080622218798069523e-01
4.165827939150467674e-01
3.540299222239148835e-01
4.098928262705727743e-01
3.446312343689391655e-01
3.465500718055785634e-01
4.134494381309358757e-01
3.700033575807326058e-01
3.242063813457158328e-01
3.812857753051426268e-01
3.245221812873670952e-01
3.310010740117606542e-01
3.255420846226260156e-01
2.889961215721227328e-01
3.396603855671923577e-01
3.256392062784544406e-01
3.259003469105489770e-01
3.409133340207622376e-01
3.146923835191507979e-01
3.619404712739460739e-01
3.664532677935518068e-01
3.802045837818731622e-01
3.078952767509767763e-01
3.325905101587185442e-01
3.477035894378751602e-01
3.484511738794415225e-01
3.833017011181038547e-01
3.251754431261538736e-01
3.322805580723772745e-01
3.127840732306327864e-01
3.300223570997314892e-01
2.947893328164154503e-01
2.638047641347107120e-01
3.126120042443469305e-01
3.024662868007162997e-01
2.755910682107727827e-01
2.682398773033271566e-01
2.389951303033820695e-01
1.836832987898214531e-01
1.748148201364295995e-01
2.066799272448839042e-01
2.034399743474277766e-01
1.402900369343023645e-01
5.617765821573933449e-02
7.263663069810040451e-02
9.965899224200135131e-02
1.131266991688417295e-01
9.167037087570738263e-02
1.520282752569518947e-01
9.469537927450442927e-02
1.014103799831682085e-01
7.453546692198043111e-02
1.432712215302479886e-01
1.601593230262237377e-01
8.892953055330744816e-02
1.483391591012784283e-01
7.612165419631392038e-02
8.457346757853843877e-02
7.427891929048886788e-02
3.759806599062895383e-02
-3.645875670819198611e-03
-3.480365667315317435e-02
-3.170568334652912323e-02
-8.236281153280622380e-03
2.538971562420985761e-03
-6.946139956825886363e-02
-3.125920241959741219e-03
5.806609483453364917e-03
5.661895420573355431e-02
2.858451656583337400e-02
-4.630059871717535566e-03
1.451283540394739807e-02
7.640881770285155514e-04
-5.794063333095646195e-02
-4.475125700629221243e-02
-1.876865393600904777e-02
-4.357011398977671951e-02
-6.059048221330299439e-02
-7.280910107283311561e-02
-2.636293201868283517e-02
-1.139763908295260940e-02
1.327354858083612532e-02
8.298357065165488586e-03
-1.476146064427449195e-02
-2.021750743685810092e-02
4.176952412288041649e-03
-4.360701323870903867e-03
-2.263961746355681870e-02
7.323768067343390531e-02
6.408088710243577124e-02
8.619442913316036070e-02
7.296653618064280478e-02
4.626454489925956037e-02
3.378479027984448990e-02
8.115514368751672314e-02
1.265718273176104081e-01
1.840859501145828414e-01
2.109657842360294078e-01
1.935019391946110057e-01
2.348757403689323286e-01
2.532767451902440126e-01
2.633238300663857112e-01
3.591126644724781936e-01
3.713808174732374234e-01
3.836795207295597976e-01
3.634864624237444941e-01
4.007337648869582769e-01
3.929999552081593350e-01
4.409278484896997918e-01
4.438987142216067605e-01
4.284365023384287818e-01
4.091272752701063387e-01
5.098180284671244289e-01
5.308644909391276867e-01
6.183814766442110589e-01
6.101637237322066198e-01
5.982136677718006279e-01
6.234050877731349694e-01
5.480097362125355698e-01
6.039541593734849556e-01
6.111872698162976736e-01
6.394511687233738195e-01
5.812903335256504045e-01
6.063284403072470852e-01
6.132414542877105967e-01
6.548126185246101461e-01
7.292212069984744804e-01
6.623524919905604547e-01
6.588716325836454502e-01
6.308182926258619760e-01
6.562791760138011465e-01
6.178280538238588582e-01
6.338565237869671076e-01
6.333189365185998287e-01
5.923495506394466092e-01
5.962698571379656531e-01
6.024911106389585491e-01
5.449151007877091057e-01
6.104394053438201295e-01
6.191145437690063202e-01
5.689053855108714419e-01
4.957686634285666250e-01
5.198619249940441556e-01
5.455357008613925807e-01
4.616433339014981430e-01
4.655355943319573475e-01
4.972551973183233498e-01
5.072560730742794455e-01
3.962419886141448355e-01
3.789342408971230203e-01
4.261230336892060655e-01
4.451321159351128154e-01
4.142807631430174276e-01
3.654460931035815596e-01
4.238916859251736780e-01
3.825348567603362726e-01
3.663791738564973199e-01
3.601993403988844045e-01
3.874236887970514687e-01
3.475129709557518987e-01
3.974538360869301346e-01
4.000589693832072857e-01
4.299556416929758984e-01
4.897090758950248812e-01
4.231825465606259828e-01
3.765857593410307791e-01
4.511731853955226468e-01
4.256724997043754843e-01
4.533219974148458009e-01
4.834421556022634459e-01
4.295388195793301556e-01
4.125622016507880518e-01
4.160948980209011605e-01
3.687444465858586429e-01
3.753375419860504048e-01
3.727703711026392752e-01
4.014974101033803588e-01
3.790852398681677227e-01
3.306803300581682148e-01
3.800216931802956610e-01
3.144521263955392110e-01
3.853199475337720226e-01
3.567565992396154462e-01
3.364733792781878230e-01
3.122024821265237948e-01
3.562481643248956997e-01
3.242325717999180457e-01
3.172484221539191296e-01
3.046749373220500878e-01
2.627876648460048536e-01
3.070893821776380928e-01
3.686425746281397076e-01
3.771902242621723578e-01
3.856857430828843913e-01
3.990365261898444205e-01
3.322493906823356657e-01
2.851582994108396441e-01
3.102229822588607466e-01
2.738607926563262351e-01
3.252072416917627939e-01
3.162597993527355156e-01
3.456780909946443603e-01
3.469712464536519048e-01
3.246046316592139935e-01
3.455752901241995745e-01
3.607533453474224272e-01
2.359462885895423079e-01
1.810196477551684613e-01
2.173894585080295705e-01
2.226917728669950414e-01
2.858986221860887467e-01
2.337123390737864681e-01
3.005964288984145361e-01
2.617808225567466729e-01
2.091025904288175419e-01
1.808276373306276774e-01
1.473882669396230083e-01
1.850438682721117778e-01
1.704678480441331190e-01
1.480253261285939814e-01
2.104713604569280749e-01
1.783077399349307646e-01
1.348373352412634840e-01
1.515170952098079393e-01
1.598763077687014866e-01
2.056197277428534753e-01
1.678026297543074308e-01
1.533761120807605738e-01
1.244472650089292892e-01
1.341882764031603892e-01
1.108947306879383282e-01
1.039054917181803372e-01
1.003174341269803677e-01
8.849409706021402200e-02
9.321210096261403621e-02
6.756011356928726119e-02
6.556207633536952073e-02
6.009038154959144701e-02
9.907067047901783885e-02
4.636554097185967976e-02
5.449947252990922086e-02
8.685217464582742353e-02
3.154531019965654132e-02
-7.366107036801207431e-02
-6.148037540282258462e-02
-5.864058762743560443e-02
-5.300157833129605367e-02
-2.778606042925250291e-02
-6.405428005260566104e-02
-9.870735182339689107e-02
-8.552343175635292172e-02
-2.798772197669677220e-02
-2.858989070866388427e-02
-4.636817402436478608e-02
-2.472677388927298214e-02
-4.745024243712610973e-02
-5.003339967356129625e-02
-3.979326361084011693e-02
-6.466728518232339740e-02
-6.574811300293068039e-02
-5.166720859264145593e-02
-6.401436717874253723e-02
-3.418077179055156734e-02
-3.484465160088676822e-02
6.689806167253702085e-02
4.613680694260567650e-02
-3.282768251835540413e-03
-2.047341117418817469e-02
-3.134303938223104852e-02
9.654989416657752677e-03
3.806470569348377464e-02
7.347868429845286209e-02
4.828968521460776098e-02
8.177861839419131584e-02
9.112995169165225007e-02
9.360893274050934021e-02
1.254955924491665820e-01
7.890663657407184783e-02
5.635063287950198285e-02
1.708432655609579409e-01
2.268926100247062871e-01
2.700099009374951065e-01
3.528370929375374554e-01
4.135779967663190670e-01
3.889188796557191408e-01
4.118132913851624832e-01
3.845940856461294022e-01
4.266806632584408399e-01
4.313103674450620706e-01
4.615056760951390946e-01
5.498978237537585079e-01
5.558022127190049844e-01
5.397317286978327022e-01
5.896764359783835951e-01
5.974529754704039908e-01
6.460858085195888556e-01
6.845220723171923094e-01
6.831933078161749329e-01
7.409248206284969607e-01
7.392448711439681963e-01
7.359009132494052086e-01
7.520491926440926456e-01
7.343223182983315001e-01
8.093727967654011923e-01
8.189900450316209835e-01
8.310730920465676519e-01
7.721718922116485029e-01
8.274796646605164785e-01
8.764170929168496604e-01
8.550682050705986637e-01
8.081805422546187723e-01
8.554603594897999264e-01
8.156606289276158162e-01
7.321630611037958092e-01
7.642081167375796014e-01
7.636984755963934779e-01
7.990486128764366924e-01
7.725310739695326889e-01
7.553767516987563990e-01
7.473294670411724239e-01
7.308475680407400255e-01
7.919964104152601436e-01
7.065254120709358876e-01
6.185026433341628271e-01
6.365787664529226619e-01
6.496557216721418060e-01
5.966094883538567428e-01
5.950212396270495585e-01
5.446549435391333516e-01
5.359797036158857608e-01
5.150110221375473474e-01
5.275563696040920236e-01
5.621545373731472450e-01
5.213664142864016249e-01
4.994869484906276358e-01
4.909625669330016651e-01
4.780418638605123949e-01
4.257976462076626945e-01
4.177066920470146050e-01
4.227991230777459752e-01
3.828681564172020657e-01
3.720353909840836693e-01
3.382891918972805723e-01
3.781163752656654387e-01
4.395924367499149388e-01
4.367597638970168172e-01
4.598945144910019933e-01
4.442237339903477022e-01
4.450538002441786212e-01
4.091932791094097244e-01
3.929661736805178385e-01
3.840411208093127415e-01
3.718184412336770772e-01
3.514192459054152340e-01
3.484957487152253730e-01
3.501654246310584861e-01
3.638872544067339732e-01
3.599254022760676186e-01
3.329895161734053310e-01
3.663975645532365766e-01
3.740845254791764773e-01
3.499021817760817887e-01
3.380526760483597570e-01
3.277502300008072744e-01
4.072131115056586426e-01
4.446759571503596797e-01
4.629691109160345430e-01
4.321505547813719317e-01
4.080909998234971137e-01
4.379858060435855571e-01
5.014900548825120818e-01
4.985667870792758749e-01
4.832584112851601166e-01
4.509909397958025146e-01
4.578650074942582915e-01
3.869200337916863242e-01
3.307829824116039208e-01
4.042609426860014898e-01
3.230591910019510737e-01
3.494136722231988568e-01
3.949948392119455032e-01
3.459736695082618052e-01
3.173038432478756943e-01
2.986494389162365759e-01
2.988959239134207913e-01
3.424703347864795910e-01
3.398529921007952259e-01
3.149014305881429610e-01
3.237145475513633630e-01
2.929082561194747414e-01
3.250999863550910751e-01
3.200613189466717801e-01
2.718874706944780506e-01
2.254260406279491868e-01
2.459061189635046996e-01
3.036288948985650382e-01
3.346849849736109883e-01
2.745838763525957349e-01
2.758016773530198029e-01
3.062154758554712086e-01
2.407355755925646434e-01
2.434227830578469809e-01
2.605624180750403251e-01
2.967479963442731239e-01
2.957439170901453029e-01
1.889407021329136682e-01
2.316224092738210227e-01
2.539025479541056063e-01
2.554223539455365288e-01
3.046848102189482210e-01
2.650189863870255347e-01
3.162770285984277119e-01
2.576493496445337317e-01
2.646821088545027734e-01
2.200201510767668400e-01
1.633929247646697114e-01
1.900588933955721649e-01
2.004171874279697119e-01
1.784294253402560759e-01
1.975197545321133452e-01
2.304142899196737482e-01
2.551324229360486529e-01
2.358476549891685980e-01
2.260493764603833111e-01
2.010185525865681722e-01
1.712908489900459574e-01
1.292278414989788682e-01
1.284562143567264392e-01
1.223011831676595051e-01
7.602696006246024985e-02
1.491187747598494151e-01
1.294212239238875517e-01
8.617435584867731702e-02
1.097491260677695424e-01
5.946439819846933289e-02
1.043421977056846889e-01
5.508037939051080301e-02
1.052256298953489766e-01
1.015732300695622037e-01
1.220580143372312493e-01
7.399706311313462848e-02
5.563394231095568354e-02
1.837533909311003799e-02
-2.379823083511409254e-04
6.834121187011781007e-02
-1.169975989563187130e-02
1.246735085108807706e-02
7.436392462633997953e-04
-5.399232333354325730e-02
-1.034293981768079351e-01
-1.377420988965807058e-01
-1.006458515756168959e-01
-6.853790610695448260e-02
-5.490007992063628689e-02
7.104292605848100753e-04
3.019879487641310284e-02
-3.469496812512273820e-02
2.408353190552125350e-02
-1.902445116693100846e-02
-2.357977674254501180e-02
8.078014907995555161e-03
9.685867378818854845e-02
1.377515391876155681e-01
1.131977244595840648e-01
1.215675290061696556e-01
1.218019250572543455e-01
1.264486755392441597e-01
2.817176047180909582e-02
8.671777486841068805e-02
9.156623840369593204e-02
9.109088109987520387e-02
1.851815055220480954e-01
2.005586435674395207e-01
2.101918662878467792e-01
2.851352183382727112e-01
3.181811822749266438e-01
3.119216813176585723e-01
3.239538225516149228e-01
3.649284580634262198e-01
3.237395748756656810e-01
3.721349803948932333e-01
3.696190998043379916e-01
4.428762863517661241e-01
5.062918304746374387e-01
5.313388099046325586e-01
5.736165131846553411e-01
5.516847802149764668e-01
5.226470497750901334e-01
5.673344662632436863e-01
5.873865185980651216e-01
5.991867196989967281e-01
6.002685356370415226e-01
6.275727185512713913e-01
6.104164204258917259e-01
6.709130165677754665e-01
7.248208522955867927e-01
7.887541073246103762e-01
7.349607871204899556e-01
7.868837807638489057e-01
8.496170912225398109e-01
8.560952098110432562e-01
8.686947165212571820e-01
9.239124626704448007e-01
9.468322997727107726e-01
8.946170122282112169e-01
8.785461227808109008e-01
8.570653364535560925e-01
9.259145054176280976e-01
1.000185930841710924e+00
9.587016684442196679e-01
9.381063547778667466e-01
9.425408978766001145e-01
9.600690092387522689e-01
9.832325487372669537e-01
9.767611573366059563e-01
9.159518183940407177e-01
9.346105490518779035e-01
9.433441727130545962e-01
9.380240087030407015e-01
9.074200547055104593e-01
8.637855733372015177e-01
8.417335122928994995e-01
8.210380924962338289e-01
7.856282715839869590e-01
7.905884156997013967e-01
7.700914861911068998e-01
7.377535914916774074e-01
7.446050286568279830e-01
7.287057010998839734e-01
7.563240507956314751e-01
7.042896793805737410e-01
6.328010597426998451e-01
6.766520418230423939e-01
6.204848289762241453e-01
6.575883195342474563e-01
6.621645641428408613e-01
7.038693175755874609e-01
6.450042174218191260e-01
6.334781748889145581e-01
6.572283720028674336e-01
6.890288641738215869e-01
6.532912973383313560e-01
6.065162190335042780e-01
5.987533569357444962e-01
5.907787369164033686e-01
5.505566795713890960e-01
5.324272799887918017e-01
5.054350186608855822e-01
5.258632913639054163e-01
4.946788633830069282e-01
5.234628487589434442e-01
4.897192089890317068e-01
4.610508337720691241e-01
4.865143012393461919e-01
4.639428201814130848e-01
3.845991355435227632e-01
4.026167682203219411e-01
4.135684745402421481e-01
4.134820576814081106e-01
4.238251081941752929e-01
4.672690318701283041e-01
4.763100806363793627e-01
5.430082076756321818e-01
5.191756839507641885e-01
5.262728459518631885e-01
5.196230424582546359e-01
5.205213438313158747e-01
5.056994253914510740e-01
4.921825095362071245e-01
4.543376608560138474e-01
4.807913111307988707e-01
4.968826320936746144e-01
5.183425309098801392e-01
5.077882492276313275e-01
5.237628906944125085e-01
5.202341462633874869e-01
5.095869242002613042e-01
5.414919822221484491e-01
4.928528863048244335e-01
5.609165643266760259e-01
5.191413904200578022e-01
4.792311616770775218e-01
4.819010264036335256e-01
4.805896809523248492e-01
4.564224032700477385e-01
4.576153624120436469e-01
4.256033318654996456e-01
4.087068680009411925e-01
4.062579129525142885e-01
4.662634397225590144e-01
4.399414376379420233e-01
4.180703643669235747e-01
3.794823388459478974e-01
3.985167865102842710e-01
4.162025332544490031e-01
4.886887145928813236e-01
5.022929908810066513e-01
4.195987938899892744e-01
3.939121015850605700e-01
4.222492960618661750e-01
3.624529135129917479e-01
3.986968581828771452e-01
3.758390352216508523e-01
3.599085684143865094e-01
4.224589818798604179e-01
4.256544703742093927e-01
4.456611063090653024e-01
4.206792661197193972e-01
3.835677678596006723e-01
3.398374592201336974e-01
3.453695598685076473e-01
3.232611967889211235e-01
3.742045700690207477e-01
4.272702877577707614e-01
4.630344886649608860e-01
4.462071396101148224e-01
3.504078366390610544e-01
3.431869584259487627e-01
3.720442660987928751e-01
3.733956233444858941e-01
3.813882072740835683e-01
3.317589384997248758e-01
3.248181869597049909e-01
3.152269626534737745e-01
2.807965045754607925e-01
2.801336322143023194e-01
2.498123877741703636e-01
2.624153245257129230e-01
2.792742187763131434e-01
2.826940396243634024e-01
2.937596903497882717e-01
2.783224595794133172e-01
2.569651581250633754e-01
2.408169747452085785e-01
2.416885600071013718e-01
2.612695422113481825e-01
2.769104033069551551e-01
1.996358936545483964e-01
1.731204058215146113e-01
1.484505204002168344e-01
1.697450658485881170e-01
1.295553198251345739e-01
8.865342242676466089e-02
1.279569111347862720e-01
1.313994379880008279e-01
9.423502297529406935e-02
7.095590918830552152e-02
7.079593224907032578e-02
2.264956173250255722e-02
-1.359830415159635209e-02
4.126413622847369123e-02
9.505580433844312838e-02
8.436379555563534860e-02
8.435010724058938925e-02
7.639356458731400012e-02
4.617452097051273630e-02
8.013635076924562062e-02
2.966817017726451275e-02
-3.005511894651645421e-02
2.076616692502445197e-02
-2.244050226118019659e-02
-8.947996544116346151e-02
-2.569123645057323074e-02
4.913455075136038963e-02
4.833625809280737984e-02
6.375823430976494677e-02
5.059187994505353475e-02
2.282510359757666460e-02
1.060561599909019825e-03
-3.124075028539968595e-03
-3.251943362166657275e-02
-7.349543005313036170e-02
-9.160910806797994965e-02
-2.945133777955698251e-02
3.891459729587644356e-02
3.027959656005148326e-02
-4.264508820210650974e-02
2.544650812508287077e-02
1.173850760173870966e-02
2.789189701445367320e-02
-8.707000995364637397e-03
-3.689984961358395293e-02
-5.780960411600216675e-02
-4.799944899805605458e-03
5.615184053582832069e-02
5.918311015748518866e-02
6.389458276823564709e-02
4.357122167646466926e-02
3.278268407450125876e-02
9.537202655431022136e-02
1.417197120959435008e-01
2.008929464712372881e-01
1.912491146227351668e-01
2.064616285878382307e-01
2.821023016559855434e-01
3.725714035739022822e-01
3.342636344874458931e-01
3.784491585675854308e-01
3.628522218826211176e-01
3.736004681069142741e-01
3.601245020623816684e-01
3.767235355834159805e-01
4.674547559261774676e-01
4.948812098397679105e-01
4.577320726009680985e-01
5.347264410173000471e-01
5.957108591133862818e-01
6.166725077236059338e-01
6.510935090567749883e-01
6.540319299766844674e-01
6.603408313610628078e-01
6.859433989382287544e-01
7.096330580363650053e-01
7.583689481163320423e-01
7.675670632388719161e-01
8.044108966069216660e-01
7.690501366956928875e-01
7.721344832114334089e-01
7.660425239605832548e-01
7.809499453119723711e-01
8.063547336600016546e-01
7.979030473060395590e-01
7.997351654783261266e-01
8.163184851648955798e-01
7.879144211438641188e-01
7.877186302151034658e-01
7.458061616969120511e-01
6.887404621391408632e-01
6.587910966467600549e-01
6.843685713659277692e-01
6.567886448723290194e-01
6.644015613676291787e-01
7.336256857283040000e-01
6.648977283259683846e-01
6.213890580636715066e-01
6.326801031391737773e-01
6.686502263575971883e-01
6.758649797766419498e-01
6.379663978144486380e-01
6.362798844251962294e-01
6.341250181616840953e-01
5.420251015316510657e-01
4.945695513690631095e-01
5.862891432359514932e-01
5.385513405841736434e-01
5.078427883592431247e-01
4.725920299821531612e-01
3.963769146360335283e-01
4.080103505721107138e-01
4.062152103864552499e-01
3.899508302486207612e-01
3.667028558273727201e-01
3.516713290445594442e-01
2.973087520824166941e-01
3.082240257448846110e-01
3.082131637855937134e-01
3.576318389831342204e-01
3.850203477354217085e-01
3.387227555210593488e-01
3.691535778186879613e-01
3.407715452795330169e-01
3.352143522690235744e-01
3.523160264174856615e-01
2.996748843852353739e-01
3.382720493178201782e-01
3.014075469130497176e-01
3.337671062261015620e-01
3.330872857539023957e-01
3.498670185013023626e-01
3.126856070710566371e-01
3.318531564030569592e-01
3.110006802507521151e-01
3.254762894808925777e-01
2.779065284382319923e-01
3.249674794772331454e-01
2.933757934840980908e-01
2.416514740899958491e-01
3.013692244222161420e-01
2.410963674856993200e-01
2.782659079147178360e-01
2.412555062681109863e-01
2.374789631026958392e-01
2.226678277709157605e-01
2.929036624674653533e-01
2.617297609372076783e-01
2.350179065660031874e-01
2.588232563010782750e-01
2.707600825502094466e-01
2.859670874497292070e-01
2.986518496749650531e-01
2.693890596049582364e-01
3.057452100705188025e-01
3.276312456032305365e-01
3.103587982799977940e-01
2.617795978027497306e-01
2.806785376321903613e-01
3.070669617336149182e-01
2.938202329466504947e-01
3.318861854313543969e-01
2.520471727305378939e-01
3.118373816561686995e-01
3.392540516740698564e-01
3.040974764694129862e-01
3.050654197698715042e-01
3.514333920674594380e-01
3.685196154515744671e-01
3.229086125943682051e-01
2.942103587052083968e-01
3.392545947252078031e-01
3.497056617940196288e-01
3.417312570599364552e-01
3.111555092175479764e-01
3.023999616411565672e-01
2.676102502010508366e-01
2.682851741816373314e-01
2.473128673311001946e-01
2.149864824892498971e-01
2.014174781500110423e-01
2.334914185142708820e-01
2.435262057077131059e-01
1.923454167071492193e-01
1.804866415615632436e-01
1.540057617213566599e-01
1.603291359809578265e-01
1.781201605216562456e-01
1.415002710880045589e-01
1.124631798718445097e-01
1.078998175679361238e-01
1.292314378993520696e-01
1.637440125460611351e-01
1.662593414141363690e-01
1.297626456862551181e-01
1.120137206157321152e-01
5.824163469721213571e-02
7.834892403321085108e-02
1.213498439545230290e-01
1.192921422842901508e-01
1.069844778124662138e-01
4.317307416824670008e-02
-1.355612060304400845e-02
5.479958139692513164e-02
6.217171805979242183e-02
1.562630355320249187e-02
1.631240747444362427e-02
1.372445261151668261e-02
1.432909588762243391e-02
2.952012563948203105e-02
2.263384584015319667e-02
-2.408124835541256004e-02
-1.889114492068048878e-02
3.731510947930496286e-02
5.242637368818186400e-02
1.001618506387589869e-01
7.472939854208601740e-02
4.318487658610126873e-02
2.523452809548320727e-02
-4.050675584298491644e-02
5.170440868931466816e-03
-1.822401087906197134e-02
-5.175630323963923557e-02
-2.272067669385015309e-02
1.367560870708033061e-02
1.994764142781615610e-02
1.423931265364743876e-02
6.356593381527907149e-02
-1.078093464122703050e-02
1.752232532228554726e-02
-9.008016510858822892e-03
-4.151559394902044203e-02
-1.355931928647858414e-02
3.104716648481380473e-02
-6.751919923377422417e-02
-8.176806785652730378e-03
-2.742807914017702381e-02
-3.627654630766099370e-02
-5.557684097737973505e-02
-2.942111113652383370e-02
-3.724478895171988435e-02
5.770446936703865770e-03
1.046834157445935415e-02
-4.671243242069084145e-02
-5.706935008079533356e-03
-2.326273865131867069e-02
2.378795102727011834e-02
-1.328327186077798983e-02
4.442627936209452011e-02
6.657108890060664530e-02
8.901788021291132114e-02
1.566062147239884461e-01
2.610903518555962588e-01
3.219200522888976956e-01
3.401409696060366250e-01
3.536693292145511314e-01
3.434753060518097589e-01
4.024843263125872372e-01
4.521680673674073891e-01
4.854354705466096265e-01
4.720924643851072133e-01
5.211463791339611129e-01
4.907925972729640374e-01
5.750257145348488530e-01
6.046817739471361808e-01
6.578425045764914048e-01
6.696585278812460240e-01
6.724753654648106815e-01
7.683687076717780062e-01
7.631605450323171169e-01
7.687937147503640656e-01
8.209110908319376954e-01
7.984975793383800591e-01
8.746375524763444487e-01
8.862106776069994529e-01
8.524507441101429883e-01
8.645824733446022536e-01
8.548242704709352324e-01
8.815321084635521220e-01
9.100543819733798445e-01
8.681764699182241696e-01
8.133940727481733246e-01
7.923490280524071450e-01
8.155200332682028819e-01
8.355425211233934446e-01
8.151914137669111771e-01
8.451343434026715729e-01
7.907855651935701280e-01
7.755874447998910570e-01
7.047282647642078013e-01
7.376899745289284827e-01
6.958188108578451381e-01
6.914136658593245111e-01
7.413969000951026178e-01
7.069874680234194964e-01
6.726803537064711680e-01
6.061570434474345959e-01
5.783220189292249680e-01
5.668716105379524306e-01
5.446496115853362019e-01
5.385317246832929117e-01
4.822892691095715390e-01
4.807407881782171377e-01
5.055241454484664665e-01
5.177013056901568211e-01
4.992905567525123822e-01
4.740425810014229913e-01
4.819526298776266038e-01
5.038730326020808281e-01
5.320171769111563531e-01
5.078917872890107432e-01
5.387083201081617201e-01
4.756484236405106869e-01
4.572016539515848521e-01
4.721821012119205574e-01
4.843142956272675215e-01
4.511679636589805420e-01
4.302633282693251182e-01
4.308878259685910983e-01
3.552648506654341731e-01
4.024694061807341239e-01
4.047227840936089560e-01
4.163709510857605545e-01
4.627603453712370585e-01
4.306140745429407612e-01
4.174543443054561931e-01
4.647058321446709828e-01
4.491149090706618718e-01
4.420644074376714472e-01
4.331231726874845700e-01
4.217130385000195103e-01
4.966310386009929467e-01
4.437504017863745376e-01
4.305463031658027240e-01
4.152535409005703726e-01
4.041904960293176141e-01
4.317500872160951464e-01
4.964080710700990995e-01
4.824644244339585941e-01
4.695250434964394759e-01
5.276230988957479884e-01
4.504208065230372871e-01
4.646886975668933495e-01
3.936444364924975292e-01
3.966374130830582212e-01
3.793798580499297413e-01
4.646611645702601323e-01
4.502943201280015240e-01
3.892648176203171162e-01
3.757620432422728030e-01
3.338831918409898569e-01
3.096636281220078724e-01
3.323869662481612752e-01
3.130537095873845432e-01
2.595147101054944283e-01
2.898151591770609659e-01
3.267837711919084343e-01
3.515964642527566464e-01
3.697180545092035864e-01
3.427527207631349548e-01
3.066918705974597814e-01
2.923324296460048655e-01
2.640356819073303440e-01
2.722788184579436055e-01
3.120827715487687337e-01
2.866504730080923768e-01
3.231957954187706927e-01
2.689896002028957511e-01
2.596116126603026375e-01
2.879179823539297356e-01
3.033030549060494740e-01
3.034052768130731659e-01
2.749798974786936134e-01
2.785587266730961686e-01
2.534953870623749550e-01
1.933720309654884950e-01
2.223988364054793609e-01
1.639091677022684601e-01
2.048166156962852869e-01
1.303315641121196578e-01
1.350928556395919466e-01
8.101287294659299809e-02
7.581601790890765691e-02
8.696544607760298140e-02
2.014173639947719474e-02
7.607054749177931396e-02
1.029946654454183541e-01
2.723349011245354556e-02
5.555529815870478838e-02
4.422195660302283282e-02
3.648338988976464192e-02
7.200390354964236739e-02
6.109694130680630442e-02
5.116787978690663652e-02
4.389560585234666967e-02
7.669560879586388713e-02
4.036563194831235130e-02
-2.453044837691267105e-02
-1.905148833954865839e-02
-4.388375653242371915e-02
-5.187460455674333670e-02
-4.227705082063066416e-02
-1.804118848431677732e-02
-2.643527466834612316e-02
-2.312283176416063055e-02
-6.167819420769506122e-02
-5.404832384704028742e-02
9.137299106394953380e-03
2.139675096254682607e-02
1.595805494298449534e-02
2.535839399124726473e-02
4.212808468407892165e-02
-2.128883557392974909e-03
-4.423302447460408619e-03
-2.351836810943951778e-02
-1.014813944425378700e-02
-3.790101917236209789e-02
-4.497208444478768830e-04
6.561905073273986699e-02
-1.752304095330022016e-02
5.057023423623886738e-03
-1.690795771469750380e-02
2.683116607656177433e-02
3.367911954317902995e-02
6.628894102297072655e-02
8.372647515047071387e-02
9.243052136585958034e-02
1.011144281951481538e-01
1.076556627655912424e-01
1.174005160150112387e-01
1.100919303637344360e-01
7.704614298734793754e-02
9.890971682628303674e-02
1.565063947702639569e-01
2.050448294302663066e-01
2.971294351813002499e-01
3.228511417860783217e-01
3.654350570815637633e-01
3.255483671194867035e-01
3.288778819978689927e-01
3.521061032023675152e-01
4.368870982126324409e-01
4.729096359740469491e-01
5.228745669724367273e-01
5.460827821706598639e-01
5.576840098709050508e-01
5.439580626773959926e-01
5.860430499728634945e-01
6.555420781174507994e-01
6.451440664049764573e-01
6.755966436648563889e-01
7.292159211572821764e-01
7.148914835833295456e-01
7.284991905027152770e-01
7.642713132052393332e-01
7.288856484023541471e-01
7.950453679238338456e-01
7.867524302076177589e-01
8.281607603417037167e-01
8.177375608659349648e-01
7.544392466427281008e-01
7.446437145791281464e-01
7.649750682523021039e-01
7.656754170321341535e-01
8.135496006714406647e-01
8.482572233254837002e-01
8.530039791863887055e-01
8.063218634699088616e-01
8.273180354616197496e-01
8.253911738445260937e-01
8.365037193642547164e-01
8.376623943148066020e-01
7.956436641733541926e-01
7.321704724109443507e-01
7.645769725991385934e-01
7.227182423874248807e-01
7.886212606197676722e-01
8.324387033863435148e-01
8.262767165065689756e-01
7.492110168385267555e-01
7.422712823705427398e-01
7.332436735901559643e-01
6.945946625315480016e-01
6.825689276313610110e-01
6.290928961605219971e-01
5.972392855024120095e-01
6.246587816248402314e-01
5.511269452725918727e-01
5.677188311126795117e-01
5.720333163608104510e-01
5.874717633308178533e-01
6.368192750527553736e-01
6.207893216207961418e-01
5.740377267192620092e-01
5.947379830374563969e-01
5.240495963680936731e-01
5.511644396260256817e-01
5.426485071511532032e-01
5.768666381395719522e-01
5.169541413075899872e-01
4.980432121188215211e-01
5.323293803466998542e-01
4.844288099676152259e-01
4.508144671533482750e-01
4.468479620566892518e-01
4.154447926951498893e-01
3.825680988241271785e-01
4.229440893374245558e-01
4.491168243640412672e-01
4.780680088151622598e-01
4.333462684004258936e-01
3.936393374910630572e-01
4.300464234754732828e-01
4.181439919376343517e-01
3.489649013275332168e-01
3.129694380151641919e-01
3.288529481764755902e-01
3.416712530295518691e-01
3.442625674363725685e-01
3.427170462518048244e-01
3.229587085214926101e-01
3.259124976956642161e-01
4.067431402570357291e-01
3.681393779242619901e-01
3.808723921896243203e-01
3.570972296947710345e-01
3.464893456863370469e-01
3.171457542645408356e-01
3.441148683801118491e-01
3.597768466319290481e-01
4.160266760615377035e-01
4.523470850787201236e-01
4.182703964297927457e-01
3.908840784389629452e-01
4.064468480231653302e-01
3.651782939365696978e-01
3.988906429452245828e-01
3.970819742753575188e-01
4.001633073068495139e-01
4.643283465218626116e-01
4.382336514283294293e-01
3.918363801110947287e-01
4.085377956997942595e-01
3.917003720526308630e-01
3.500544517346066975e-01
3.691016103408876203e-01
3.546647819752343778e-01
3.756305829337556190e-01
3.743085809660405272e-01
3.789060709889195966e-01
3.577617210572112683e-01
3.275127355774914428e-01
3.263273044582458704e-01
3.880703105722126955e-01
3.771009319146952921e-01
3.912922387823563053e-01
3.686981832616897381e-01
3.052080481815446777e-01
3.519976713394141199e-01
3.799412845935595806e-01
3.955272080662479151e-01
3.574354211883694621e-01
3.402792635260700194e-01
2.958562685116482571e-01
2.905059330589541688e-01
3.497952203073892430e-01
3.475000584089829592e-01
3.166015286529188510e-01
2.515608457336403481e-01
2.441387067924373211e-01
1.510934963762457228e-01
1.419511056185804310e-01
1.832881558599159244e-01
2.391563444862939980e-01
2.255080891097550888e-01
1.726658754160184106e-01
2.114611081654347857e-01
2.004670820658457919e-01
1.810420499820765694e-01
1.640639127222420501e-01
2.556879252795394297e-01
1.862413340566212994e-01
2.202026879567371420e-01
1.789236955185470046e-01
1.596786345193657308e-01
1.133520374184446566e-01
1.244507817779732378e-01
1.033394225492949986e-01
5.875571564933165791e-02
1.021221185160319372e-01
9.439251572287531145e-02
1.036932662035637692e-01
4.824622656465570730e-02
-4.916303144387193513e-03
3.361766994567711581e-02
2.139272680061334725e-02
1.730742576696654711e-02
2.649202507938137191e-02
1.054760089378730531e-02
2.046029918566408257e-03
5.939661166774366091e-02
5.426857824310250822e-02
1.730178987711451441e-02
-1.285152130581331334e-02
1.675172900895911809e-02
-2.647134533201912429e-02
-8.485264672797321328e-02
-1.003429775133223983e-01
-1.180545768989324784e-01
-7.936854204897215992e-02
-6.324359982090191346e-02
-1.189247132756920261e-02
-3.190933207583997178e-02
-5.549099149415313154e-02
-8.323329280170695121e-02
-5.579656419686704338e-02
-5.986288249835544639e-02
-5.310230964033792189e-02
-3.249033934194026085e-02
-4.955006334664925627e-02
-3.455358797585029312e-02
-6.466223610602601923e-02
-7.792720944178915810e-02
-5.216537979421238119e-02
-1.256143803501351131e-01
-5.530907719465605332e-02
-3.661987568668507997e-02
-1.149966248004715003e-01
-3.282406978316375346e-02
-3.280869552166901237e-03
6.892711047068963981e-02
7.920985359907159462e-02
8.695340001420306941e-02
9.094840347519625445e-02
1.026072597621904142e-01
9.660819293132066887e-02
1.053399750323929379e-01
1.152819969051410848e-01
1.442115838207403133e-01
1.477219475490531564e-01
1.540321244023874769e-01
2.326703596682222486e-01
2.891144353820120916e-01
3.685023628450543320e-01
4.158013015997636952e-01
4.014643013159406304e-01
4.105669257188239718e-01
5.188883652066085261e-01
5.206411352065452025e-01
5.232722535558257393e-01
5.629421116043052953e-01
5.799552045080306195e-01
6.126130748445037799e-01
6.425502700920859844e-01
6.315197991158254531e-01
7.098210882517902443e-01
7.716137771962146008e-01
7.377529733005396828e-01
7.560771979969393985e-01
7.879765587503988478e-01
8.338101623476966706e-01
8.730296196508856577e-01
8.958742410700688552e-01
8.951831594236870915e-01
9.149534264547098950e-01
9.239676838677438608e-01
9.572567476171909284e-01
9.479953650988524050e-01
9.414966750042853549e-01
9.685793044699528842e-01
9.778630148532482247e-01
9.632270385972215854e-01
9.801112750632358095e-01
1.064259008668048345e+00
1.033343850114378348e+00
9.784603468404095006e-01
9.448694277557543320e-01
9.873903808717828801e-01
9.275551763617625456e-01
9.193145146463095330e-01
9.326400200457809486e-01
8.882184219552402560e-01
8.884159448137703974e-01
8.213164585732004586e-01
8.129887637915195198e-01
7.874710425759913202e-01
8.127459243639989506e-01
7.505692196327763410e-01
7.626033651981889427e-01
7.279898886493956223e-01
7.332620555623915459e-01
7.372902406520062124e-01
7.429531273260280289e-01
6.926020102119634370e-01
6.900921745597401458e-01
6.724313419542108372e-01
6.729140837856758539e-01
5.888517047868037091e-01
5.555632954550071556e-01
5.354567556476756973e-01
5.388982806995437080e-01
5.231908910480786989e-01
4.937526895061816745e-01
4.651297783170261768e-01
4.717842911519675164e-01
5.116342181020204771e-01
4.648670025671809980e-01
4.485736163461180315e-01
4.894935810123203779e-01
4.624224210713951955e-01
4.684950883512427611e-01
4.530291918728645006e-01
4.454470115719892931e-01
4.677629836294875942e-01
4.543488814948651311e-01
4.384458009280117752e-01
4.267491835485779372e-01
3.745095937696367172e-01
3.462944193273677640e-01
3.598111793317362306e-01
3.190533923248489723e-01
3.776280438827597785e-01
4.162905050839858512e-01
3.879657375019481269e-01
3.372400535858133264e-01
3.480062479344874782e-01
3.581025702116852338e-01
4.036503240811171178e-01
4.396286010435506153e-01
4.335865963988879690e-01
4.585429822106323328e-01
4.296506029006355032e-01
4.415072459927844584e-01
3.978926899874006273e-01
4.152705526347318377e-01
4.136714885256248531e-01
4.184596938679202571e-01
4.157747508940010661e-01
4.066330648362225242e-01
3.591871527558243571e-01
3.704145650154304636e-01
4.208027523126584013e-01
4.161410018024575552e-01
3.858805775004460759e-01
3.534670572782160902e-01
3.501526980245548981e-01
3.656331620256163539e-01
4.397278362488232228e-01
4.730579383163260876e-01
5.051395658181019321e-01
4.947193940488813779e-01
4.791804133928304621e-01
4.303960992068019964e-01
3.989881678820300093e-01
3.929594725927108012e-01
3.471354957977696443e-01
3.441396688543996718e-01
4.047237323245549967e-01
3.915410808593731140e-01
3.898316862234914582e-01
3.849427096992543706e-01
3.915151696789603841e-01
3.982732469483735716e-01
3.863207573374187742e-01
4.105114278041570586e-01
3.907298883273394585e-01
4.326753605014468929e-01
3.911182668480942537e-01
3.968313870358770590e-01
4.134282899563005431e-01
3.487064747420438593e-01
2.700873987685303845e-01
3.123627632465244552e-01
3.351416519660719850e-01
3.222247997996755542e-01
3.304285268631924621e-01
3.584227027751303307e-01
3.129526414443439819e-01
3.025058308234730431e-01
2.997597384368939633e-01
3.419405993819238931e-01
3.285095671441154441e-01
3.038578308795175098e-01
3.130109848146499507e-01
3.059180938981725384e-01
3.203945178606321664e-01
3.074520705431727507e-01
2.992472262679897743e-01
2.334653190436575543e-01
2.604902989733580698e-01
2.157529125665724190e-01
2.294097434881070263e-01
2.487901298870159594e-01
2.126930306272082072e-01
2.641851989989963956e-01
2.477661326146911036e-01
1.635692351155476343e-01
1.549408953440141734e-01
1.993405918005389243e-01
1.907152036332872558e-01
1.404531116685722725e-01
1.692537966746338052e-01
2.172143522590834763e-01
2.015496320653269169e-01
1.383265517943333411e-01
7.466942276497635922e-02
9.780437723433639541e-02
1.161056836485509780e-01
8.137070086263453739e-02
4.677504115223037051e-02
6.822159564335780746e-03
8.596886482963100873e-02
1.215031899884783662e-01
-6.108275149124361980e-03
-7.384034624129617863e-02
-3.629629988060774359e-03
-3.968826455607524228e-02
-7.125255755904001675e-02
-6.719451803715131843e-02
-4.025933306266966938e-02
-2.443382841010254339e-02
-1.435967183779383871e-02
-5.699239428858342282e-02
-9.402784603228821203e-02
-7.543571014366955152e-02
-1.262700329420577694e-01
-1.269905353321111874e-01
-8.911655955234368265e-02
-2.071436369090188037e-02
-2.659141989205211776e-02
-4.786295572357384537e-02
-4.598181157956705151e-02
1.570857878810974842e-02
-7.205067647233747395e-03
-4.472201928597926285e-02
-1.207394330300183387e-02
1.946917162468631002e-02
4.556838702304488731e-02
1.090755667211042168e-04
3.690730318395007981e-03
9.860825948108942196e-03
3.134212437449494792e-02
2.769814565526769468e-02
1.755433039604029771e-02
3.522970839569466994e-02
5.356214481077644501e-02
4.938523285392345391e-02
5.397968169594807852e-02
3.253701402128209019e-02
6.166524246422643019e-02
5.706080635488300357e-02
1.295223601596000862e-01
1.510712452570905084e-01
2.355021610948584421e-01
2.691257398809613899e-01
3.095481003573724577e-01
3.290012867936510932e-01
2.861011320132703095e-01
2.737740983564319608e-01
3.090323283342483185e-01
3.979263850181929962e-01
4.663890037439055170e-01
4.831908123789393494e-01
5.563596894506899204e-01
5.986588872341386258e-01
6.258243050580414302e-01
6.136071115246216623e-01
6.497183899071975466e-01
6.481753173859393646e-01
7.144514665010188725e-01
7.537797376971606678e-01
8.220322122072024618e-01
8.292709955865577021e-01
8.686386139999561218e-01
9.015828600948881943e-01
8.862163818063670817e-01
8.766595817554713177e-01
8.592377350893778409e-01
8.469263956264073689e-01
8.478341441802439427e-01
8.643640000204892981e-01
8.139961074730320822e-01
8.152102405877711400e-01
8.046007198139322192e-01
8.431842885631022355e-01
8.294803070999768879e-01
8.296731961051199145e-01
7.847553332927857950e-01
7.324806286916651921e-01
7.411761998622129477e-01
7.596820269007875659e-01
7.787881429204347450e-01
8.012756379851700972e-01
7.896316034375128190e-01
7.498347649731862408e-01
7.106972420397730250e-01
6.612689930238121461e-01
6.716543277643813870e-01
6.197328618631900987e-01
6.097906360029152761e-01
6.264889707333635149e-01
6.407826158738001432e-01
6.291771685604110598e-01
6.045629139078718683e-01
5.708329183950912045e-01
5.719628140821949591e-01
5.212656220439761956e-01
5.024199164564181475e-01
5.270825322429342208e-01
5.203773011486632072e-01
5.177172466764989878e-01
5.190318876640103163e-01
4.820515212064088728e-01
4.081412702557012384e-01
4.119071903236646848e-01
3.895171251509133570e-01
3.631148820870888083e-01
3.524882359199922877e-01
3.298247106710353593e-01
3.313331751699244987e-01
3.403010687159633840e-01
3.258584361907829186e-01
3.138919706838079748e-01
2.964511790121004964e-01
3.015497128330846266e-01
3.029627583937632984e-01
3.176893394298829776e-01
3.625097634572120309e-01
4.193812486632731984e-01
3.886983159453396564e-01
3.992852821419695664e-01
4.070371881270382630e-01
3.710787457922145594e-01
4.032512883397518788e-01
4.550898127764906320e-01
4.164535955347878904e-01
4.174662832736337759e-01
4.295507493268599930e-01
4.567760794438304739e-01
4.615106305396738939e-01
4.673600078698785798e-01
4.688309838035877863e-01
4.176060946635055671e-01
4.692032460110294734e-01
5.331670858231438714e-01
4.504109779007083869e-01
4.690731986966165667e-01
4.805366110602730667e-01
5.743722599595233458e-01
4.873621152845427629e-01
4.036432467681801417e-01
3.663702033525740864e-01
3.649000704105966886e-01
3.680722188667412409e-01
4.052224508826558491e-01
4.277467681708970737e-01
4.305451992481302836e-01
3.905985447187637072e-01
4.020291611312757363e-01
4.175806572018501139e-01
3.987260772634050876e-01
3.465374433704357937e-01
3.806460656621157290e-01
3.693904578609684686e-01
3.551632100826546679e-01
3.338364884422936885e-01
3.187524960017068532e-01
3.237633952910733970e-01
3.486043420299272944e-01
3.262145519439020869e-01
3.051013881324735055e-01
2.615391672278059021e-01
2.418131521815810592e-01
2.761588496890849398e-01
2.815101316949046861e-01
2.876523449503237129e-01
3.299854733048436239e-01
3.353826401576307514e-01
2.567688777731629846e-01
2.232913802289855087e-01
2.482780755244399229e-01
1.636741898433495823e-01
2.023410349712202183e-01
1.905583036253663820e-01
1.570660471846171691e-01
1.386379083873908458e-01
1.749345191696828616e-01
1.543024150041891474e-01
1.298434732273888725e-01
1.751423410114460455e-01
1.220213523764435287e-01
1.197350588186870124e-01
6.172358106995454174e-02
4.397776073744098790e-02
6.526779407109384312e-02
9.218546634154768660e-02
6.270852954717179295e-02
6.468596064604978380e-02
2.307978378628239985e-02
8.645824460284098900e-03
5.078879728056362453e-02
-3.375975174133981349e-03
3.314934019433189022e-02
1.831161002371423097e-02
1.461419400096074239e-02
-2.814380605104462030e-02
-3.569540239778280777e-02
-2.082140970557376514e-02
-3.598114561468357397e-02
-4.085062096188828151e-03
2.289247536471216565e-02
-1.113877612702555628e-02
-7.124875397066283977e-02
-3.904189499320002282e-02
-1.961228282995058220e-02
-4.212702757598973946e-02
-2.874359775891475316e-02
2.316926787769620424e-02
3.817881037577657705e-02
9.387154066865401048e-02
1.239061108253754345e-01
1.034914153532812409e-01
4.250683702822639909e-02
6.780234394125997377e-02
9.955597096523016720e-02
9.601942632832533020e-02
9.260297796308852858e-02
6.418470010726323727e-02
9.111695725752583241e-02
1.106733687447379877e-01
1.243295038479684395e-01
9.265705928161518945e-02
1.253529762441895623e-01
1.371557434621260563e-01
1.779112253041310876e-01
1.920827411620792124e-01
2.479849012123132024e-01
2.794458275376793810e-01
3.041785565727115337e-01
2.950681590382567832e-01
3.011398630818490352e-01
3.461188060365696928e-01
3.657548561103524110e-01
3.948542061086816601e-01
3.965388416997416288e-01
4.589205673044842171e-01
4.949014021203965719e-01
5.490561864957042015e-01
5.216646034431323686e-01
5.199530453616189041e-01
5.732240033953940328e-01
6.643057889330941101e-01
7.007158507501463074e-01
6.717552860789290925e-01
7.108475544229875265e-01
7.815081379955304275e-01
7.379029554481933983e-01
7.367063286824325763e-01
7.692257532072829251e-01
8.076573842239196388e-01
7.816144270455329668e-01
7.681775247256555916e-01
7.776169995264918811e-01
7.970659315985360038e-01
7.909970405174160391e-01
8.084541348415783535e-01
8.131263885625670262e-01
7.713781224687347171e-01
7.249979806985908937e-01
6.879471755470093486e-01
7.266571123713648772e-01
6.905948400005109677e-01
6.630262071218039344e-01
5.944817534531571246e-01
5.911958449855702069e-01
5.874187324353811190e-01
5.837774740267656082e-01
5.574720574403408957e-01
5.285085499737525172e-01
5.568039578591728045e-01
5.355183415785568224e-01
4.569881433257968473e-01
4.262219452769369643e-01
4.310010508605122692e-01
4.678929898721409519e-01
4.668054320437676763e-01
4.093922747257920935e-01
3.679554703619231093e-01
3.653102576355601316e-01
3.369856339568240711e-01
3.334550409290376605e-01
3.221657248173175336e-01
3.259021192964178804e-01
3.113266908412056222e-01
2.765064007850648320e-01
2.300742401956090699e-01
3.047741854912801029e-01
2.913633039520058254e-01
2.915146704096988617e-01
2.601647850958425101e-01
2.807050626026573736e-01
3.028034187940750188e-01
2.544329114383762080e-01
2.018425025096941550e-01
2.527809098002832267e-01
2.882280137002812825e-01
2.900282777978450133e-01
2.637376676036984335e-01
2.566800995697651744e-01
2.268897711362569125e-01
2.174740425792847376e-01
1.893834814370323749e-01
2.046125447035795353e-01
2.199456460483105724e-01
2.130174264751860391e-01
2.409866093813750887e-01
2.743024655654431876e-01
2.515123155451359782e-01
2.469557870512831821e-01
2.175580589863074787e-01
2.699695591850834187e-01
2.719034863015703518e-01
2.756287243237938167e-01
2.710676946696657930e-01
2.774612622953729901e-01
2.661869586006376243e-01
2.681263274006583375e-01
2.642355943838505805e-01
2.251587571770232721e-01
2.159171142090922368e-01
2.220994513343810539e-01
1.801881170625252715e-01
1.680981581111073431e-01
2.344686326238826779e-01
2.675695982411083196e-01
2.550148241155778539e-01
2.613958067776599448e-01
2.272379292554105312e-01
2.197552762627950074e-01
2.543543942468015073e-01
2.789387461205647400e-01
2.778793915517026591e-01
2.503823923382608729e-01
2.267564372013906593e-01
2.370005162698574641e-01
2.770885734857464477e-01
2.691433481647810821e-01
2.810731619952118177e-01
2.921140794199378332e-01
2.533168482099749652e-01
1.941603492312355961e-01
1.187387477327113694e-01
1.454160428431566232e-01
1.427937694276484315e-01
1.645117047663658127e-01
2.031060238795668327e-01
2.016101783563548910e-01
1.473206804112197066e-01
9.096429103875239286e-02
8.699016973855866475e-02
1.587013910734715871e-01
1.909241777875375079e-01
1.796647907433531477e-01
2.051074581750751968e-01
1.640228766594202248e-01
1.622465973397989869e-01
1.138784221709710776e-01
1.124918730468863204e-01
1.131567598288905907e-01
8.826161313260985630e-02
1.318665135458688686e-01
1.027180383047615331e-01
7.295478241820094190e-02
7.393471119473946085e-02
9.419779042458581442e-02
7.228324248698785037e-02
9.676069739926736191e-02
6.430017118055604552e-02
3.406505025386240976e-02
8.094457480987468645e-02
7.550888126581087323e-02
7.207607921647209148e-02
5.799803598326931653e-02
2.712901859364450635e-02
2.745699221404294954e-03
7.438717861973958428e-03
9.777087752029735637e-03
-5.774711317811311029e-02
-3.918435698569208009e-02
-3.901102381343070358e-02
-6.945000018885218174e-02
-4.221740402191398456e-02
-3.819308682807353444e-02
-7.020649435956534401e-02
-7.817603350711796462e-02
-6.185699610188531011e-02
-1.160743808804086397e-02
-2.134036988033732180e-02
-4.803160425189770440e-03
-2.878427362954236873e-02
-1.584593372429821123e-02
-5.691838232087798044e-02
-2.331238928523334322e-02
-6.157166699348549932e-03
9.266642906250840278e-03
4.210305038637462971e-02
6.887654237934599799e-02
5.551107471224912132e-02
5.465255675305241700e-02
5.872652017445753603e-02
6.992904376540366729e-02
5.352479383078033448e-02
7.565707341542848852e-02
5.291545896838767415e-02
3.471542052511970844e-02
5.658387939577998182e-02
1.048878022213498296e-01
1.548967969183053794e-01
1.901949108736974980e-01
1.894860490968748035e-01
2.061360404099358556e-01
2.331716110375376405e-01
2.314624168518087111e-01
2.452045288336108797e-01
3.258170518966591045e-01
3.463209847921561169e-01
3.803473892938298850e-01
4.638144906321339245e-01
4.986631653337129655e-01
5.422841707259306032e-01
5.192956682606157948e-01
5.499095917426013447e-01
6.017211107948281512e-01
6.211634507956323992e-01
6.886952502701010337e-01
7.185394033873767627e-01
7.544918875030574013e-01
7.607393712222964011e-01
8.246376428791949431e-01
8.386365130794103395e-01
8.167049078337978996e-01
8.290805902394383642e-01
8.859868537168816838e-01
8.972733931889574910e-01
9.188492121000459978e-01
8.923019811488858144e-01
9.047809726333546632e-01
9.454852235188591081e-01
8.903742054286771790e-01
8.634216746109406593e-01
8.685535373219850364e-01
8.767743102147429468e-01
8.874918834168238346e-01
8.839600327290806359e-01
8.517766480182897837e-01
8.421059998302635741e-01
8.683947785861054758e-01
8.985888841449233277e-01
8.745476696483663881e-01
8.816981045637549697e-01
9.049143018967125141e-01
9.088908097719010648e-01
9.251995501949421552e-01
8.618590300573276686e-01
8.772873773139897580e-01
9.064476778924932532e-01
8.264900268759663993e-01
8.190426699365652707e-01
8.031224413989307420e-01
7.686554434360537424e-01
7.449520723149893886e-01
7.582730461019945301e-01
7.146693431483934766e-01
6.930035940285208529e-01
6.748000922907227972e-01
6.623513745984818124e-01
6.320761424544930618e-01
5.961695251408285490e-01
5.555716111013451197e-01
5.565788199832468752e-01
5.732873031807025344e-01
5.471710707774489757e-01
5.181885092594836761e-01
5.190778068283130597e-01
5.613308163762956715e-01
5.213736776121519201e-01
4.952457547704045004e-01
5.324164906205899328e-01
5.114313082091668239e-01
4.435894837116073908e-01
4.641407643117243520e-01
5.043898108375466371e-01
5.407794417014685218e-01
5.296519970591436755e-01
5.061692737777298001e-01
4.969683179063213441e-01
4.935240963039593809e-01
4.911368658231163864e-01
4.719216558322553157e-01
5.002081158902734748e-01
5.032260101552118448e-01
4.878312138716258684e-01
4.776025218234946634e-01
4.970147795574205718e-01
4.888414856413106357e-01
4.771055621145051107e-01
4.660663980931430972e-01
4.859861224651903511e-01
4.943808611727577573e-01
4.809923230353558288e-01
4.890272782792297601e-01
5.013832940285486428e-01
4.796696766194127326e-01
4.894686854402404697e-01
5.457988829709176093e-01
5.590393053272015855e-01
4.996908691976081340e-01
5.093185135476022696e-01
5.112583934175513045e-01
4.980062288377530288e-01
4.452813715821276053e-01
4.958750249801561205e-01
4.702969152619613791e-01
4.193132310382863825e-01
4.145257098378406502e-01
4.523952942755867235e-01
4.539056252317516527e-01
4.534749379713294837e-01
4.742718108461388415e-01
4.968615293836544655e-01
5.127109332148848120e-01
5.052934543871347994e-01
4.783755136272025421e-01
5.199468307848299498e-01
5.528330966754728681e-01
4.698353430432699041e-01
4.484224956336782530e-01
4.472086342134322656e-01
4.411242185522097903e-01
4.641455766930507321e-01
4.903720333002157261e-01
4.992587952811936569e-01
4.258897417419517661e-01
4.203585614391013303e-01
4.271160632637365229e-01
3.987642692476260908e-01
3.687400621417149527e-01
3.897322084176910173e-01
4.145192298756315563e-01
4.019712549736661478e-01
3.840036738799062488e-01
3.696081733511596967e-01
3.787017266013968930e-01
4.173705637337212782e-01
3.838292407776918713e-01
3.880463117332113576e-01
3.763049819147105124e-01
3.594293189102376052e-01
3.577614377052932837e-01
3.630632809681111350e-01
3.905028895364333064e-01
3.834702322703629207e-01
3.525333441139246737e-01
3.565935836675551696e-01
3.678613863784918614e-01
3.553283316801226221e-01
3.021994145229470741e-01
2.607016796406164127e-01
2.358113114745977179e-01
2.054714476173857829e-01
2.020461718301664322e-01
2.162510917066753358e-01
2.465580781887616035e-01
2.393794690013993087e-01
1.755374251208824676e-01
1.632703913046223698e-01
2.122928589053212356e-01
2.184159795216478184e-01
2.325721610572640263e-01
1.837553276183991058e-01
1.674337765572182779e-01
1.594407387993253544e-01
1.555922041185245630e-01
1.343750157149128654e-01
5.518803916640695195e-02
8.412053002346313313e-02
9.758300868710914622e-02
9.327472703607819771e-02
1.245750295592710361e-01
8.207672659834441831e-02
4.129737099911598430e-02
9.044365853395441857e-02
1.193941268978307713e-01
1.363928324061280672e-01
1.238676294639539238e-01
8.232122288665189025e-02
5.329236698424087704e-02
5.305003726302977979e-02
4.041774917371097203e-02
5.168211279958215970e-02
1.487892817797173417e-02
-2.007761194817422878e-02
2.161286318198795894e-02
4.977265447674616983e-02
3.190425750107170333e-02
5.959938883075097810e-02
6.015660429433476730e-02
5.882031102208390427e-02
6.926311553727462766e-02
7.005258183910750835e-02
1.195502802238302201e-02
1.033339355604192232e-02
-3.152257758267391907e-03
5.052716504200394781e-02
3.614967601544194498e-02
1.322149576921731462e-02
6.445764645119482494e-02
6.606394212512438358e-02
6.271166424855785515e-02
9.412942296025417210e-02
8.660758012958941210e-02
7.431912737483613307e-02
5.048322489572811683e-02
7.923563497975133485e-02
1.174778395364071415e-01
1.267891411179596362e-01
1.628799311297922381e-01
1.657001597188593189e-01
1.716922522617689573e-01
1.613027899758343042e-01
2.189500518866066558e-01
2.802292704902629716e-01
2.895257744618506823e-01
2.998506314066843315e-01
3.606836483966185947e-01
4.084780614018532208e-01
4.292567506558719881e-01
4.055282345047316328e-01
4.010977352624016667e-01
4.441797792773932718e-01
4.228761638221784636e-01
4.448523414649652730e-01
4.602927925488375926e-01
4.393979458308491237e-01
4.884822821068527943e-01
5.634749793323790001e-01
6.056762931063190969e-01
6.100523955499521644e-01
6.504114909466108818e-01
6.395997619852112903e-01
6.622135025621844751e-01
7.101928037225510026e-01
7.597404730557630881e-01
7.683501623910548028e-01
7.574593659910792143e-01
7.875565591617842420e-01
8.273022273925287884e-01
8.543589421832622488e-01
8.653345198053168374e-01
8.529719004013694983e-01
8.701559509662748493e-01
8.756526694048519799e-01
8.304597573628709206e-01
8.045211176820897814e-01
8.482717249096092260e-01
8.909314916504069704e-01
8.511638907445928659e-01
8.026868752770426330e-01
8.065909876706394144e-01
8.169860508113865327e-01
7.406287967982513321e-01
7.586882752883877812e-01
7.456848161376454787e-01
7.192705793781081214e-01
7.056555459954965137e-01
7.027074138084575816e-01
6.711576187737108290e-01
6.359286963801910053e-01
6.451377932778904478e-01
6.052290340675248181e-01
6.255828489426259464e-01
6.240102065886913296e-01
5.973592127277554953e-01
5.844024790725873553e-01
5.695500542914383457e-01
5.273521397726913529e-01
5.437136629014559519e-01
5.341324168424923524e-01
4.994824851097767748e-01
4.654032939330571828e-01
3.927510564570555474e-01
3.858567746348712246e-01
4.097428956620317586e-01
4.450988137948427292e-01
4.458084148505616628e-01
4.427056954191878058e-01
4.449696762623360224e-01
4.321454419565591842e-01
4.456037664693945355e-01
4.450281706390913361e-01
4.589413794965965798e-01
4.753158851549578734e-01
4.599939499299854351e-01
4.281478086764370916e-01
4.246747443666450406e-01
4.308357927367911788e-01
3.743825127921704965e-01
3.948350622796159004e-01
4.341587363313118564e-01
4.278723426021833198e-01
4.222016181901321885e-01
4.045737164388663598e-01
4.373080785952915828e-01
4.692529814491440687e-01
4.530831667702939769e-01
4.015594652159634181e-01
3.818316632161289359e-01
4.295362447760515678e-01
4.155381223892437581e-01
4.161582421345120242e-01
4.566533621804821363e-01
4.212025610374517393e-01
3.694403848338605467e-01
3.657588362487606548e-01
3.432335641649010283e-01
3.521414013293813761e-01
3.805557885983065214e-01
3.259090223768674743e-01
3.083861611187431739e-01
3.047865818262991411e-01
3.710362816844737233e-01
4.127298114743913060e-01
4.366799552958692821e-01
4.813068838738021604e-01
4.918321558772387192e-01
4.823302178271030582e-01
4.638896308751496167e-01
4.452373432365742678e-01
4.583785428548194929e-01
4.427640239683196532e-01
4.379449987458738924e-01
4.603865116440034044e-01
4.480800468715291918e-01
4.499890730514763404e-01
4.344275990300461854e-01
4.489245534649872194e-01
4.625509488630151211e-01
4.765536751180258213e-01
4.548073079943355523e-01
3.834941898537018168e-01
4.005982347883939032e-01
4.022993953873126305e-01
3.453727623567956484e-01
4.006992251412365702e-01
4.624836224411151830e-01
4.756946804149324581e-01
4.447526817372642327e-01
4.273486123618685517e-01
4.107236353885044822e-01
4.336932438413380608e-01
4.464193917668182188e-01
4.483471121155782058e-01
4.269953860148688607e-01
4.180415907614289939e-01
4.032685955880812023e-01
3.530848285043237667e-01
3.359811827877983714e-01
3.878256479864417017e-01
3.747633944297797948e-01
3.087594112660345669e-01
2.729520340398136069e-01
2.714815459099055861e-01
2.705853698066720825e-01
2.657034983527586380e-01
2.036568770333454514e-01
1.720522372085951379e-01
1.744903837355910592e-01
2.066654270025070628e-01
2.147734084738900096e-01
2.125136462750013833e-01
2.111684213143493749e-01
2.470495307646045080e-01
2.363650243254135086e-01
2.212214654001463665e-01
1.958453862610275431e-01
1.648109642755954118e-01
1.314508294425764112e-01
1.700060958392826671e-01
1.525389921328407783e-01
1.553804740911196858e-01
1.575311580240516818e-01
1.022825292493678706e-01
1.021922520184226219e-01
8.454448914772889900e-02
1.133459299292992883e-01
1.449945461417626591e-01
1.381057479013652056e-01
1.460253351362079122e-01
1.436712290072343079e-01
8.392504797387423388e-02
2.264097872647313422e-02
2.443478598722430631e-02
-5.634596306262552173e-03
1.723166498365228880e-02
6.890632014708790443e-03
4.576060734154871468e-02
5.103751501808148627e-02
8.795111528514676369e-02
6.426937211795413774e-02
6.230378470789308537e-02
7.715579932250511697e-02
6.779650099999774693e-02
6.005229256782740332e-02
4.971146377211974748e-02
2.179120224143269932e-02
1.914477112988062155e-02
6.357927567123192181e-02
6.012061663897818459e-02
8.403377564634374741e-02
7.273759726936657177e-02
6.089364298825074295e-02
1.094857479802447131e-01
1.310590569775606784e-01
1.727179283835624801e-01
1.526283098713464570e-01
1.308921221140306734e-01
1.079095585597692197e-01
1.459551002089146676e-01
1.127555819940642412e-01
1.100477209889886426e-01
1.535718639922597495e-01
2.392769041896698479e-01
3.070731317151915163e-01
3.361366036210168828e-01
3.575253836588150325e-01
3.815201823788420543e-01
4.316073796414520158e-01
4.616416678527586193e-01
4.966360250262112364e-01
4.542406330594893071e-01
4.996258262372698655e-01
5.663582820380204108e-01
5.846500193879439200e-01
5.811795128667096577e-01
6.122500206302494696e-01
6.384535032645595187e-01
5.948621632478530152e-01
6.290139388031840140e-01
6.987786943235032577e-01
7.472826943401437161e-01
7.616042297746759004e-01
7.730771042073069088e-01
8.115678166282701556e-01
8.415307103517235543e-01
8.425510986346779196e-01
8.507898685467594202e-01
9.004139518615745796e-01
8.914734062300888606e-01
8.726837119443856539e-01
8.675099649928214030e-01
8.875879081491414579e-01
8.616363754196859626e-01
7.915563138699365231e-01
7.484927634677683850e-01
7.534107899802424679e-01
7.205990175993457481e-01
7.320876704973808824e-01
7.596643478729793175e-01
7.341484047409561065e-01
7.209072059333169191e-01
7.197232921174462339e-01
6.663303308205139608e-01
6.516687294262043517e-01
6.551132605005611786e-01
6.548964135395537456e-01
6.451594391483437274e-01
6.318915039815908852e-01
5.952958252625377700e-01
5.941087447442826575e-01
5.799362122995905811e-01
5.483772306953665909e-01
5.464127473860619366e-01
5.139161852883300519e-01
5.268178932813585291e-01
4.970148796845445527e-01
4.845859764633004829e-01
4.444045294153354253e-01
3.909071925113449253e-01
4.479016902628426555e-01
4.574851811550925129e-01
4.085551759252314397e-01
3.656644665258253490e-01
3.936994394691629151e-01
3.953152591841456176e-01
4.044235191295700305e-01
3.779780428040993012e-01
3.020269760941307613e-01
2.965529773715865902e-01
3.150707932176541326e-01
3.173854270157177582e-01
3.184671660286461092e-01
3.237585848947557854e-01
3.773144346476479671e-01
3.425627549474297151e-01
3.650164698586670919e-01
3.664221410402344614e-01
3.642809847713106008e-01
3.529410675277355747e-01
3.612595139602309269e-01
3.849217857465812020e-01
4.094306075385416577e-01
3.625918904985060975e-01
3.177973227058200623e-01
3.642894592327049486e-01
4.248045213850960011e-01
4.072761616317364108e-01
3.953019338218652923e-01
4.086568017718900103e-01
3.862433752722125302e-01
3.952779524762745078e-01
3.927656916903980444e-01
4.026538680832092987e-01
4.116807038939192531e-01
4.232823514843689350e-01
4.162688971512892855e-01
4.586170053221030884e-01
4.095134180427201787e-01
4.231336241471309600e-01
4.546227914901380673e-01
4.560320736711120926e-01
4.089420437685923893e-01
3.957041276558270759e-01
3.657117078673332022e-01
3.157100114255869117e-01
3.155756731668415416e-01
3.323014761672209438e-01
3.130981119299352522e-01
3.427829293331636773e-01
3.575508765800621824e-01
3.937592389105033508e-01
3.304087903354370748e-01
3.016937384522777044e-01
3.182582825866003273e-01
2.798672184228271909e-01
3.208735548546625682e-01
2.989924753400677315e-01
2.759079504327097143e-01
2.740045393942052154e-01
2.461379681443374157e-01
3.011567344176235839e-01
3.738472971194535810e-01
2.999314473718260321e-01
2.064046087266545593e-01
2.320969829033153742e-01
2.104700660025432823e-01
1.955858349001970975e-01
2.294860657883053268e-01
2.333646248357381103e-01
2.034083270124465714e-01
2.161749568844440750e-01
2.358232147581547644e-01
2.297450397877635053e-01
2.210414035782626574e-01
2.000659066712365819e-01
2.040242651605692348e-01
1.883285202241054002e-01
1.799517328006179917e-01
2.198578798907713239e-01
2.289051125337988601e-01
2.154424902631129624e-01
1.624108389441290823e-01
1.287167558932263978e-01
1.151409356128516581e-01
1.019598827908652083e-01
1.317258928319660627e-01
1.408426537855238247e-01
7.719852737745677707e-02
6.879548545661775399e-03
5.510258841922539147e-02
8.457928365700971562e-02
7.511078155075107121e-02
6.476618818577649372e-02
5.551489238762380429e-02
9.601619532233346410e-02
9.573905543756558445e-02
6.371605983709199839e-02
7.455021016755183916e-02
1.052621448139728633e-01
1.154344187545985057e-01
6.668967539451733928e-02
9.496698131630156026e-02
6.160983700541599467e-02
5.649902145657749453e-02
3.682216946355015841e-02
3.920721594207785682e-02
5.692698502625771068e-02
8.387583895993296068e-02
1.222357292398262019e-01
1.443115730847695788e-01
1.446879590813354433e-01
1.448903471658046227e-01
1.943780207535383275e-01
2.187840866915442273e-01
2.086498247569956721e-01
2.021309524143591885e-01
2.320259743014940756e-01
2.615334677411697561e-01
3.231695002232535252e-01
3.592144440433377439e-01
3.966164408271334318e-01
4.465159503766037430e-01
4.726261382479161055e-01
4.579041647749250710e-01
4.353538232333380442e-01
4.516582801780529843e-01
4.884379283549357131e-01
5.515667378152372402e-01
6.021254975788912223e-01
6.282715850717210948e-01
6.216795735740290318e-01
6.266590678288385119e-01
6.495745655677961361e-01
7.064389447642087649e-01
7.032216992424737967e-01
7.245999963225583373e-01
8.187021887305067080e-01
8.412735099887438395e-01
8.416278768378837594e-01
8.396119882543312540e-01
8.237642867158141424e-01
8.564258011641637802e-01
8.474228124915899052e-01
8.775023129902186358e-01
8.408970904936208246e-01
8.439087081212750530e-01
8.539158044460880559e-01
8.447922890288985798e-01
8.623822834689514050e-01
8.231862452040433764e-01
8.449000508076686122e-01
8.694065963315489309e-01
7.827282977704645983e-01
7.711939449050794204e-01
7.546421271284859955e-01
7.445005245588680598e-01
6.652259514206811941e-01
6.263853657988820434e-01
6.484633794812136864e-01
6.290997832164446635e-01
6.175538294901956604e-01
6.064444580584941180e-01
6.181566189027183356e-01
6.186620267994321631e-01
5.490388187723476143e-01
5.556791249202822636e-01
5.417076081876073257e-01
5.441130591093101820e-01
5.866170252244964356e-01
5.300995409375606204e-01
4.993731667280872366e-01
4.915989706234976109e-01
4.593732900795068907e-01
4.091613142996185504e-01
3.539689244026067438e-01
3.575026217179867460e-01
3.387731047573883658e-01
3.826025741298896277e-01
4.392843570725525892e-01
4.352774425729377672e-01
4.411324069196184694e-01
4.541784239650009103e-01
4.057197678119598416e-01
4.159017177973841073e-01
4.232156244098424502e-01
4.207706433053564066e-01
4.439471094274229368e-01
4.592651257954620814e-01
4.317220328130095264e-01
4.472402941537974019e-01
4.509958834468570377e-01
4.011298239316086200e-01
3.964290121556687252e-01
4.324539422316572845e-01
4.854994850954571506e-01
4.438358645340193531e-01
4.045532803487164597e-01
3.931065671050085197e-01
3.857116158941216733e-01
3.625183696111418108e-01
3.409776613488302854e-01
3.749145872338690011e-01
3.822694695014353106e-01
3.598818125605525164e-01
3.598050857500540434e-01
3.997673317257972037e-01
4.284773989378531378e-01
4.390457684608398692e-01
4.163540813726209766e-01
4.028501425330886510e-01
4.143396086313250737e-01
4.140386560744993560e-01
4.399337293063455001e-01
3.985536665075905538e-01
4.067465796828734770e-01
4.522998043310296201e-01
4.411448645725168927e-01
3.834007110886272773e-01
3.920937995266841614e-01
3.945703885913071640e-01
3.743324022597608880e-01
3.941226684762046406e-01
4.347699864444060092e-01
4.288754963284054922e-01
4.299234635789453973e-01
4.094858033523913754e-01
3.840655190590003265e-01
3.316281799709457911e-01
2.904708699534189198e-01
3.370936769159903479e-01
3.673179027307824640e-01
3.174167600711825243e-01
3.321109376640827282e-01
3.047438206266302463e-01
2.874027712927502698e-01
2.822330624548799460e-01
3.113553126721131936e-01
3.249175352685027551e-01
3.128330732984601070e-01
3.270811747737251696e-01
2.926766874764398785e-01
3.096737189869027129e-01
3.195075719205621168e-01
3.014120452386142013e-01
2.854238012335439945e-01
2.711014251438648159e-01
2.424630490037448793e-01
2.649984096486132090e-01
2.281042748246824292e-01
1.928236501436772499e-01
2.128739879195070406e-01
2.527067407974360469e-01
3.086670137379301515e-01
2.968605101247610012e-01
2.502438007697371791e-01
2.360094314216231726e-01
2.242279730881858724e-01
1.984546079616414938e-01
2.096576334398893571e-01
2.060230839607395115e-01
1.872498783948424728e-01
1.820047360671881442e-01
1.694951075478746683e-01
1.763170164511849991e-01
1.314694857871109845e-01
1.021753296368954206e-01
1.248503923380798186e-01
8.196528887537073149e-02
1.202003971706165630e-01
1.389301239639522401e-01
6.546333973808085571e-02
8.578583952954063618e-03
3.286673207293779736e-03
-5.511427569031734225e-03
-6.140814993078749090e-03
4.509530732604589282e-03
-4.862624421430161020e-04
-1.634864759173967202e-02
2.883458983116297947e-02
4.965902387842729970e-02
1.355376274547085043e-02
1.308896073143605600e-02
1.324389894542036053e-02
6.070491756263454719e-02
6.094747535052795484e-02
2.760096753905703221e-02
-7.709208646353649802e-03
-1.469216277707079306e-02
-6.312544458042586293e-03
-2.209050040714095886e-03
-7.489395282567801876e-03
1.029864200657926512e-02
2.925569828194190397e-02
5.204188881305158582e-02
7.344504645182313440e-02
1.783521398687838017e-02
2.740244322381234221e-02
4.551737134235895460e-02
2.045103560366878792e-02
2.505288697475446802e-02
4.915103660572855970e-02
5.731322046765741085e-02
1.306391012865042167e-01
1.831997056794912870e-01
2.196307503044326037e-01
2.235184247804420932e-01
2.112593712764726239e-01
2.542607215575773405e-01
3.197111048971073566e-01
3.608445698290203008e-01
3.650329171154097496e-01
3.975872564953186750e-01
4.762974383634522857e-01
5.209180575484912978e-01
5.289238882473564773e-01
4.951338052889921459e-01
4.558338926398754487e-01
4.852175394345501491e-01
5.937934256866520544e-01
6.290850809837605917e-01
6.160970241451318996e-01
6.395607396199969319e-01
7.070990783345487696e-01
7.446864442467869827e-01
7.373361063959528172e-01
7.693818193147522466e-01
7.466982710635420295e-01
7.791018788840267106e-01
8.417794297140013260e-01
8.593037117679795944e-01
8.897623219099990433e-01
9.133163165348648915e-01
9.038949098516191327e-01
8.858923273986327729e-01
9.143962110805795573e-01
9.332700967686961002e-01
9.496581521370827117e-01
9.882835967175408465e-01
1.001665078650876728e+00
9.740076628156617566e-01
9.838847522581444238e-01
1.008237585419425653e+00
1.020055571451364163e+00
9.981167704156029830e-01
9.684675368683280938e-01
9.243103811560355876e-01
8.830480678721379650e-01
8.348421573283802966e-01
8.253318584209098363e-01
8.402894087789971600e-01
8.387376332078320118e-01
8.101140764482044343e-01
8.242448394794783528e-01
7.916504152907257730e-01
7.282431238042369470e-01
7.396756304010615457e-01
7.427416902750091365e-01
7.430604840619425833e-01
7.478067619525733400e-01
6.941956467204937198e-01
7.118370527730705222e-01
7.473647118585299287e-01
7.007928945110409868e-01
6.685485198346455826e-01
6.546794549255845475e-01
6.232881468447530882e-01
6.374434640332281576e-01
5.920500106646876537e-01
6.014682159637877445e-01
6.190255855589290590e-01
6.233724428185817290e-01
5.891518285602371785e-01
6.084221653766542781e-01
6.004508493809005421e-01
5.539653732831426591e-01
5.588687506198521948e-01
5.423386663835942922e-01
5.199723399069944296e-01
5.219013566991967945e-01
4.878975812589584349e-01
4.876148434433456025e-01
4.911307759715141663e-01
5.199329414235067670e-01
5.560397925089205495e-01
5.482717078027529167e-01
5.178641896123004074e-01
5.154872377835059138e-01
5.221672563578381165e-01
5.322681537653948247e-01
5.255180821869608332e-01
5.020224857765954729e-01
4.890414496332347594e-01
4.652749517688362646e-01
4.930670335955985584e-01
5.454702884263785689e-01
5.287146723148806737e-01
5.139701916390903014e-01
4.693433774748392850e-01
4.584250989236373641e-01
4.485989303055416544e-01
4.454795762167033657e-01
4.238932196814603759e-01
4.587741668586715060e-01
4.457640378699991301e-01
4.164679674682721378e-01
4.573271430625406864e-01
4.796354164524174180e-01
4.767658838081431094e-01
5.020951187257901571e-01
4.785812766540852858e-01
4.406875496005092652e-01
4.160498146465947400e-01
4.225353317796861630e-01
4.521481304970231263e-01
4.074314404401537804e-01
3.725133925303922844e-01
4.001130300005548701e-01
4.014132307671198774e-01
3.962485727732302232e-01
3.972728867448827583e-01
4.143005549409646271e-01
4.397231517816969637e-01
4.423539781754500799e-01
3.920931495149975743e-01
3.412945539663712058e-01
3.495728698089973774e-01
3.491838298428107668e-01
3.612683670813311432e-01
4.163229666885321367e-01
4.379660051498550644e-01
4.387904229068350648e-01
4.051504082438471821e-01
4.001453183239097600e-01
3.991424866375944958e-01
3.320904783922219439e-01
3.085953018738408771e-01
3.411162612489896939e-01
3.741708027496342126e-01
3.374921229370630438e-01
3.585028168214296485e-01
3.902642753157072875e-01
3.871131502726013474e-01
4.081195135858175504e-01
4.016256397151154456e-01
3.817634818705150646e-01
3.718867292878258457e-01
3.712802389927102320e-01
3.401562800249561813e-01
3.019277495908073150e-01
2.726461269492176376e-01
3.288113695725017882e-01
3.295519937086871520e-01
3.222773292635824904e-01
3.259555348356304449e-01
2.929892753567471253e-01
2.967770830592267872e-01
2.899429519111109133e-01
2.814903888406921073e-01
2.769840244224027748e-01
2.381999151449880059e-01
2.662039701708283634e-01
2.617459364889738738e-01
2.222742639160385503e-01
2.443087141465819512e-01
2.346205365603734327e-01
1.977980896119354848e-01
1.956468739258115652e-01
2.007580335364781143e-01
2.523325744956324002e-01
2.321285401504631918e-01
2.033982148573906801e-01
1.600486388830839879e-01
8.069659198550341306e-02
6.578822938850786839e-02
9.873535434304658853e-02
9.404636682907850653e-02
7.958434284929617741e-02
7.457793168557715069e-02
8.812932956734539913e-02
1.033643884731483692e-01
6.970956700302839704e-02
5.698932227085459074e-02
3.762603040440856000e-02
4.715075181746624516e-02
4.012644348231486635e-02
-9.714505276161237990e-03
-3.856881765316886451e-02
-4.320231650626740749e-02
-2.773509917992603852e-02
5.645187366062086320e-03
2.732825867766548386e-02
4.753261453694816729e-02
8.486080758789576323e-03
-1.059612860917885473e-02
-2.834246070111073879e-02
-1.435034353429791298e-02
1.574669644242217628e-02
2.580617283867811876e-02
2.911238619839807973e-02
4.548363402914127468e-02
7.513644068294555653e-04
7.505550574473067796e-03
-3.913734824529469317e-03
-4.340050233230866722e-02
-3.840172608564944995e-02
-3.814837843207174312e-02
-2.329376924987435621e-02
-2.119352606152775931e-02
6.945223140517861604e-03
6.403277436958396129e-02
7.258235676226233724e-02
7.868962265881608575e-02
1.353739415034323768e-01
1.814964596520096118e-01
1.989570857081947031e-01
1.951515087139134019e-01
1.799779242237463106e-01
1.733725237035878275e-01
1.685443700597638317e-01
1.823484789839960596e-01
2.454269126424441783e-01
2.556598335295632296e-01
2.754755727817475575e-01
2.925938620270928103e-01
3.422531434647138049e-01
3.863922360219237961e-01
3.797818719554660327e-01
4.232812350088511755e-01
4.203109467882761852e-01
4.172469987982709849e-01
4.446835313139013146e-01
5.134415223341445289e-01
5.895067136510794281e-01
6.170042862294643493e-01
5.813940567743286492e-01
6.260991093197030288e-01
6.987330774206922390e-01
7.129382580290528626e-01
7.230367296135913335e-01
7.147373571319483032e-01
7.371147911595541391e-01
7.515500201816835979e-01
7.793347182640292248e-01
8.434115358825116093e-01
9.022712726152356533e-01
8.571113492972897152e-01
8.452368815363282550e-01
9.165428954904746295e-01
9.599909602088788629e-01
9.360901476685643541e-01
8.791270108265456518e-01
8.917091758528500334e-01
8.492234166798169337e-01
8.203105668792156635e-01
8.212366017071777158e-01
8.555824701277628952e-01
8.045163516547531035e-01
8.119607965453342624e-01
8.503742151004672900e-01
8.624055726982325920e-01
8.273359119295297104e-01
7.957783650999848968e-01
7.816182555922593922e-01
7.830408250747236121e-01
8.355019857012134787e-01
8.214963889657317386e-01
7.452515959394609979e-01
7.192149905324877190e-01
7.118575291528589366e-01
7.130829417817722282e-01
6.846796072925127596e-01
7.032800266121205235e-01
7.038400238196156344e-01
6.378207079317526063e-01
5.880928846958591860e-01
5.529452738528538580e-01
5.676823258331534783e-01
5.596710304559944227e-01
5.074976422097574602e-01
5.102803126311652449e-01
4.990439868003665458e-01
5.269957993447849098e-01
5.285596917191754951e-01
4.650139187135648444e-01
4.273982479242368071e-01
4.044559616522926393e-01
3.858316017207880089e-01
4.083304153903395406e-01
4.559945649222730268e-01
4.238378606734618526e-01
4.185831604614810297e-01
4.530296075585678039e-01
4.663520851600309047e-01
4.718548456452258955e-01
4.700432027646450628e-01
4.921211967303051327e-01
4.568790264465318884e-01
4.487569512296545327e-01
4.660748116040301925e-01
4.552440972039100142e-01
4.007998533560407917e-01
3.885199367878651722e-01
4.259837129079225848e-01
4.193677014349252441e-01
3.910019756313459216e-01
4.048898765509261755e-01
4.406453110817600827e-01
4.274683006663251295e-01
4.078079776714773619e-01
4.114030599557854107e-01
4.167506096618873168e-01
4.169676651700796044e-01
4.283283112604430731e-01
4.342163040621725423e-01
4.361166087355387022e-01
4.839907367136841998e-01
5.148197379834766885e-01
5.232883048014274063e-01
5.084155465483897185e-01
5.022808109774635765e-01
4.935003580360408093e-01
5.217465890067037870e-01
5.142551586024338706e-01
4.568121700387200446e-01
4.126447395953340425e-01
3.769378145765681642e-01
3.758534100240577547e-01
4.060107690290259974e-01
4.131891741990277311e-01
4.227895349019218929e-01
4.545780892234521642e-01
4.577326417760169130e-01
4.437065236116079503e-01
4.184266188692451482e-01
3.564035160069449759e-01
3.199084279097900163e-01
3.030338467217548737e-01
2.935101405659312768e-01
3.142937580521348861e-01
3.454485944228726790e-01
3.498700874201790545e-01
3.430271202619409876e-01
2.843303219819804939e-01
3.018373284270188806e-01
2.814396616250859351e-01
2.563640770291731874e-01
2.688464172279814157e-01
2.757155279826727368e-01
2.516053806715455865e-01
2.609287560136911432e-01
2.928078039784374753e-01
2.733860790686706843e-01
2.652833818322696269e-01
2.222115131636111518e-01
1.611986832182351614e-01
1.740036819594857898e-01
1.720268538207955222e-01
1.818506173481362898e-01
2.101296283295147893e-01
2.214926885893702679e-01
1.899796149270939760e-01
1.593181053948490300e-01
1.705032188084606992e-01
2.126915720481912797e-01
2.173794395269363633e-01
1.986914165548996081e-01
1.473899069963444941e-01
1.126433402492564434e-01
1.061836076426130038e-01
8.012952515878886406e-02
1.169655391809330536e-01
1.213935606779771026e-01
1.074563155784230006e-01
1.135346187731106210e-01
1.031527905873767387e-01
5.367461095312264091e-02
2.621464785602081737e-02
-6.262702391898272714e-03
2.927902832838630981e-02
5.565488667400297906e-02
9.826465214535859416e-02
1.016469345100045329e-01
6.494896605889784180e-02
7.766048744274385573e-02
5.424161290754012793e-02
4.592518588975756655e-02
7.990390173469064106e-02
5.599823692677631526e-02
2.940925270753268206e-02
2.904479844348404824e-02
1.851168426358882485e-03
2.513939741257908284e-02
1.738142436466073512e-02
1.910613593920879386e-02
2.812890090315529196e-02
-6.259496776595349470e-03
9.237515395167424787e-04
-5.014321165378216733e-03
-6.257195863543808627e-03
-2.238213781396729274e-02
-2.090428332798025673e-02
-1.310104946308746597e-02
-9.099048013177965868e-03
7.377847555554884959e-03
1.261050275439202194e-02
2.163034448061710441e-03
1.275310124169512851e-02
2.985040527776469665e-02
5.172330364931907593e-02
6.428251483533431454e-02
1.124135434480537099e-01
1.415605676310831840e-01
1.487341619729241338e-01
1.373710110763574077e-01
1.174461702716052131e-01
9.887474502530960163e-02
1.502134144858278675e-01
1.926166273280698060e-01
1.926778062224987764e-01
2.057144330351417527e-01
2.113333714117935080e-01
2.668372296658546028e-01
2.679538409484125694e-01
3.012387587004108358e-01
3.675885089177274301e-01
3.988563769062535846e-01
4.092951344798319568e-01
4.446530918692015444e-01
4.508117613953326330e-01
4.538657007501006868e-01
5.073219210069557228e-01
5.354920646659347971e-01
5.491325367182809947e-01
5.597052596610420094e-01
6.116979200193717325e-01
6.873318433625612567e-01
7.104373457758814681e-01
6.958726486638934228e-01
6.774646819335146120e-01
6.814610739871552747e-01
7.080884605378292562e-01
7.433536089615018216e-01
7.134473089704892468e-01
7.073605994260445673e-01
7.511513910880818212e-01
7.496424081363974867e-01
7.345331271449875299e-01
7.549692571955440856e-01
7.525106826283414208e-01
7.165238185413216332e-01
7.114890888966604043e-01
7.134873877325235147e-01
6.980233204167238803e-01
6.766857464645591458e-01
6.731113462081741439e-01
6.758548269517046236e-01
6.894176847735803415e-01
6.762602203715680771e-01
6.360807024704511203e-01
5.548317427041772332e-01
5.599741425028532671e-01
5.745493997881283565e-01
4.906619177147277799e-01
5.029776751590464556e-01
5.466730438637910083e-01
5.579589062126351084e-01
5.250401235081806339e-01
4.849695501158665656e-01
5.020814370992183751e-01
5.172284863709403213e-01
5.084187933193957676e-01
4.841891990441037907e-01
4.449440234520153359e-01
4.159076249400837089e-01
3.844698132732304319e-01
3.698645473867758771e-01
3.564966745356369371e-01
3.385525404039863018e-01
3.282637802186982867e-01
3.273507750290554075e-01
2.789201812620631382e-01
2.706646868363525305e-01
2.771420320618286359e-01
2.981929361186426153e-01
3.269262941386337218e-01
3.363830851779777142e-01
3.432758096140678949e-01
3.217177054720051221e-01
3.361966028886679836e-01
3.593757639840263751e-01
3.852464909237913182e-01
4.118800168963366870e-01
4.359802337697035179e-01
4.281612153136553078e-01
4.142515734643873460e-01
4.266114798322906965e-01
4.324924934069349081e-01
4.302126553541993914e-01
3.927553989768199361e-01
3.569917272991796064e-01
3.247823285140395977e-01
3.200551024016405899e-01
3.120990284984730967e-01
3.348059939062172918e-01
3.056466235006310983e-01
3.410861639727437722e-01
3.472388543742047640e-01
3.620155109102876634e-01
3.361481752739277629e-01
3.136245812880678607e-01
3.243677168445563419e-01
3.447310682287166306e-01
3.672411488434603744e-01
4.097115906810955277e-01
3.766733546225454754e-01
3.380386575092392265e-01
3.194721757860896627e-01
3.064675336626004332e-01
3.417026253031908434e-01
3.226931226000488984e-01
2.922213037100203081e-01
2.797183043042981154e-01
2.714986562644869927e-01
2.851973667552409331e-01
2.678408372531195791e-01
2.803071351814017675e-01
3.235678544644982613e-01
3.460916123184726301e-01
3.385197715098148263e-01
3.215695942588129852e-01
3.057661965641937929e-01
3.074648061372736163e-01
2.791419250978267597e-01
2.422688277528614320e-01
2.354102276037586261e-01
2.652437780915859467e-01
2.587197649751613038e-01
2.726290302374815844e-01
2.700322178814316132e-01
2.562724657501836423e-01
2.278343071120969565e-01
2.098283170691956911e-01
1.938083763407193461e-01
1.383306314772145829e-01
1.225043296950712735e-01
1.417246660703644912e-01
1.660788702042081399e-01
1.545290603793143536e-01
1.520586443298888590e-01
1.634406327050991203e-01
1.320188343580318557e-01
1.113490977652737829e-01
9.354739719945574794e-02
7.262602562304930343e-02
7.636385529758224489e-02
8.598930848701405449e-02
7.286108118750259099e-02
1.196698988598950131e-02
4.923674529321006577e-03
2.255645100745673481e-02
4.737935968428717837e-02
6.744261755220748444e-03
5.578356076601981295e-03
4.164084032678501412e-02
7.552061440899111855e-02
7.245449845521481635e-02
5.155710749897891160e-02
-1.154456167007648915e-03
-2.907460261878200281e-03
-3.016668445523331549e-02
-8.913851112550329192e-02
-5.235202604508772117e-02
-3.520107060662742982e-02
-2.663630260458611787e-02
3.946606466396846563e-03
6.563719816720598246e-03
-4.660768942801431572e-04
-7.843229508240692760e-03
-6.722514621522579503e-02
-6.717793645183264828e-02
-8.674919772795627870e-02
-1.079525482718066837e-01
-9.537791403241283050e-02
-6.312447428968950836e-02
-4.629926940276639369e-02
-8.572941636125661416e-03
-1.496781153810694889e-02
-2.715083674588730095e-02
-2.337219838896024277e-02
-2.418298267879235436e-02
-2.339040178465163350e-02
-4.663274486795994378e-03
1.148300371656255092e-02
-6.278375455879975364e-03
-1.922585200479838552e-02
-1.848656383112375068e-02
-4.305127727227843482e-02
-1.251803575569032656e-02
1.104699104505135754e-02
1.022224954614719961e-02
4.502574634401868003e-02
1.257472441627117132e-01
1.466546088004282988e-01
1.750066733409694764e-01
2.161751774078144450e-01
2.506499051491453134e-01
3.368253898739520524e-01
3.708174714401612504e-01
3.933089170243224686e-01
4.382062431895312749e-01
4.654285595087747085e-01
4.822938223037011585e-01
4.872270793047499549e-01
5.229875648353948803e-01
5.326339479939401489e-01
5.249813482574873236e-01
5.530408991845405797e-01
5.603273132074572116e-01
5.779770663848937673e-01
6.015683438852371667e-01
6.346753729367521357e-01
6.553701326017237205e-01
6.749418711104367974e-01
7.201481962049799401e-01
7.027744243772909849e-01
6.921428725170715168e-01
7.070055562177949282e-01
7.141136322261372182e-01
7.988303506549268018e-01
8.243251699891236406e-01
7.993009137105591133e-01
8.213503087780359424e-01
8.837493802618858751e-01
8.932542873934864458e-01
8.827618317687329075e-01
8.678381549028064690e-01
8.969013981043942874e-01
8.747036218688747367e-01
8.639606024649083560e-01
8.409191532563758953e-01
7.878454060068731390e-01
8.029403158077413893e-01
8.361754316935069431e-01
8.071084563787465083e-01
7.588328092262536240e-01
7.280792611689643756e-01
7.774382736297417162e-01
7.907292375170097420e-01
8.001760810055076334e-01
8.073638549042839729e-01
7.995978450568586027e-01
7.808500073697369759e-01
7.299131151606215173e-01
6.681703637418604513e-01
6.761328680486927700e-01
6.708532508073357103e-01
6.708450356695735417e-01
6.421095703889845296e-01
6.116479915058026240e-01
6.010577085967317990e-01
6.124443066243534517e-01
6.250957054899149989e-01
6.447614324095011229e-01
6.131689119559428081e-01
5.381696104487434518e-01
5.242566115385148828e-01
5.464431525888157060e-01
5.222823959708219332e-01
4.813290042881837039e-01
5.034470755471158743e-01
5.274829427539393656e-01
5.911172064742308274e-01
5.730721902265925038e-01
5.192522930629038802e-01
5.375926277155659294e-01
5.378931996346109079e-01
5.069490820990838476e-01
5.083143886332354144e-01
5.049591183494571700e-01
4.916913948833286363e-01
4.497892015194904225e-01
4.403872566342967865e-01
4.148024335851068223e-01
3.664536060109667703e-01
3.761006396509061211e-01
3.897387210403249758e-01
3.865574160146391103e-01
3.997652526719166488e-01
4.329008517744100115e-01
4.480710851241317960e-01
4.414026693246831390e-01
4.214499601969189935e-01
3.856356308445729186e-01
4.241920296607437080e-01
4.859857702070847774e-01
4.756996719080581193e-01
4.292670406823497764e-01
4.310280598890920967e-01
4.251207511764449887e-01
3.737519554252187737e-01
3.804975019597570118e-01
3.398233877059513297e-01
3.179998635030578114e-01
3.145702259629355457e-01
3.167242609161805555e-01
3.611827233810572246e-01
4.005284330081135824e-01
4.590838571576016935e-01
4.231430780313926721e-01
3.848217352879659270e-01
3.911804394339304936e-01
3.995796926840252117e-01
4.125267669811813476e-01
4.209122627074121104e-01
3.850567578462774643e-01
3.993691119035361892e-01
4.275418380813593711e-01
4.104192610424419185e-01
4.027787137762309788e-01
3.845594839332550086e-01
3.313917994967775504e-01
3.271737150437726838e-01
3.732337863835049063e-01
3.544252966786430314e-01
2.954744049739339018e-01
2.639590644201357250e-01
2.650351876471482848e-01
2.749781535590812842e-01
3.214151657842557186e-01
3.287863878177645360e-01
3.372374273208181283e-01
3.592259473882027376e-01
3.419906606547755135e-01
3.312767585384324698e-01
3.551371041347841651e-01
3.367372705104451081e-01
3.157989802832533721e-01
2.893197129152066949e-01
2.588213854501706379e-01
2.873992142734425048e-01
3.135427197377810837e-01
3.122155933606430844e-01
3.340617656462154805e-01
3.178551894730424765e-01
2.596788677953784097e-01
2.567493334494358459e-01
2.655560568214538342e-01
2.588008462392728526e-01
2.778951511449103129e-01
2.781691104493783651e-01
2.933686898332147908e-01
3.150971800594958849e-01
3.217510258784528898e-01
3.222513465518177522e-01
2.698206434666822751e-01
1.983065100933199543e-01
2.064148295428542279e-01
2.182604127419506268e-01
1.727104471221956317e-01
1.672641555388805767e-01
1.778437171026006069e-01
1.567170382426691932e-01
1.443476881677933366e-01
1.669036507724576124e-01
1.906019850526128878e-01
2.110115966533732401e-01
1.580379343995336194e-01
1.355580412154843151e-01
1.737329216066664517e-01
1.640675660627426424e-01
1.469411647919697250e-01
1.282038872126256002e-01
8.239671155594910368e-02
1.077313223453936208e-01
6.702881857753301142e-02
6.160934128613385768e-02
1.280147969473786895e-01
1.141974328791464655e-01
1.228538607790359144e-01
1.129651704753660141e-01
8.467948035538314100e-02
5.718361355163902038e-02
2.281272511715380646e-02
-3.684262918092345851e-02
-7.758290066058527723e-02
-1.618483037029650601e-02
4.324191641744358494e-02
8.727587954013761584e-02
1.957836668966115440e-02
-4.604825281994449210e-02
-9.059894204312347182e-03
5.632092713064234396e-02
4.949823775136995285e-02
-3.015643378110194339e-04
-1.362483252675538575e-02
-6.786671165820545859e-03
-1.463085330461602260e-02
1.410718635265403170e-02
5.289857189394921166e-02
6.111984529864682159e-02
3.763888018474728647e-02
7.121477480252183523e-02
1.022086240172092042e-01
9.383816164107927627e-02
8.334089672094568968e-02
1.199575855809687924e-01
1.585100681559365732e-01
1.593757730744233547e-01
1.678010914467742976e-01
2.038298244395424785e-01
1.926520506361655560e-01
1.359292023584199871e-01
1.582228294813219360e-01
2.346977408380885588e-01
2.845202391960909849e-01
3.117284117955014255e-01
3.352504609413392012e-01
3.449947841634286028e-01
4.119006864329305961e-01
4.440773268619794267e-01
4.315429439070695983e-01
4.536131229945681298e-01
4.545875314690155933e-01
5.345556794790966570e-01
6.333725883274297086e-01
6.715927857779583343e-01
7.395228127679294161e-01
7.808666255538743162e-01
7.842642882602808285e-01
8.165654399007601372e-01
8.147180317680304817e-01
8.264215198953313024e-01
8.593770205164296128e-01
9.132455926510987254e-01
9.334774024450955832e-01
9.372442081174091610e-01
9.297924465806386429e-01
9.638725419804365924e-01
9.295074531935576534e-01
